date,open,high,low,close,volume
2015-01-01 00:00:00+05:30,7.4,7.5,7.2,7.35,44348
2015-01-02 00:00:00+05:30,7.6,7.9,7.2,7.5,48674
2015-01-05 00:00:00+05:30,7.5,7.85,7.35,7.5,55800
2015-01-06 00:00:00+05:30,7.55,7.55,7.15,7.15,79295
2015-01-07 00:00:00+05:30,7.25,7.25,7.0,7.1,14490
2015-01-08 00:00:00+05:30,7.25,7.45,7.2,7.3,26365
2015-01-09 00:00:00+05:30,7.5,7.55,7.2,7.35,10971
2015-01-12 00:00:00+05:30,7.5,7.5,7.1,7.25,12616
2015-01-13 00:00:00+05:30,7.3,7.4,7.2,7.2,7193
2015-01-14 00:00:00+05:30,7.4,7.8,7.2,7.55,30714
2015-01-15 00:00:00+05:30,7.9,7.9,7.35,7.55,12943
2015-01-16 00:00:00+05:30,7.8,7.8,7.25,7.3,18318
2015-01-19 00:00:00+05:30,7.2,7.7,7.1,7.4,24279
2015-01-20 00:00:00+05:30,7.2,7.45,7.1,7.4,20188
2015-01-21 00:00:00+05:30,7.3,7.7,7.3,7.6,47282
2015-01-22 00:00:00+05:30,7.5,7.75,7.45,7.5,41060
2015-01-23 00:00:00+05:30,7.5,7.7,7.3,7.3,52924
2015-01-27 00:00:00+05:30,7.35,7.6,7.2,7.25,57900
2015-01-28 00:00:00+05:30,7.1,7.45,7.0,7.15,65493
2015-01-29 00:00:00+05:30,7.05,7.35,6.9,7.0,33997
2015-01-30 00:00:00+05:30,7.0,7.1,7.0,7.0,17904
2015-02-02 00:00:00+05:30,7.15,7.35,7.05,7.05,9760
2015-02-03 00:00:00+05:30,7.0,7.5,6.9,7.15,56148
2015-02-04 00:00:00+05:30,7.1,7.1,6.85,6.95,59491
2015-02-05 00:00:00+05:30,7.0,7.0,6.75,6.75,36212
2015-02-06 00:00:00+05:30,6.7,6.95,6.6,6.6,10686
2015-02-09 00:00:00+05:30,6.65,6.8,6.35,6.4,24066
2015-02-10 00:00:00+05:30,6.45,6.65,6.35,6.35,5646
2015-02-11 00:00:00+05:30,6.65,6.65,6.45,6.45,7948
2015-02-12 00:00:00+05:30,6.3,7.65,6.3,6.6,11475
2015-02-13 00:00:00+05:30,6.65,6.9,6.6,6.65,8563
2015-02-16 00:00:00+05:30,7.5,7.5,6.7,6.7,8467
2015-02-18 00:00:00+05:30,6.55,6.85,6.55,6.7,4327
2015-02-19 00:00:00+05:30,6.8,6.9,6.7,6.8,14536
2015-02-20 00:00:00+05:30,6.8,7.0,6.7,6.8,16623
2015-02-23 00:00:00+05:30,6.75,6.95,6.55,6.75,21466
2015-02-24 00:00:00+05:30,6.75,6.8,6.65,6.65,40495
2015-02-25 00:00:00+05:30,6.55,6.75,6.4,6.5,12432
2015-02-26 00:00:00+05:30,6.8,6.8,6.3,6.35,3506
2015-02-27 00:00:00+05:30,6.45,6.7,6.25,6.55,17040
2015-03-02 00:00:00+05:30,6.3,7.55,6.25,7.2,716895
2015-03-03 00:00:00+05:30,7.5,7.5,7.1,7.1,63938
2015-03-04 00:00:00+05:30,7.1,7.2,6.8,7.1,58801
2015-03-05 00:00:00+05:30,7.4,7.4,6.85,6.95,57359
2015-03-09 00:00:00+05:30,7.15,7.15,6.6,6.75,34211
2015-03-10 00:00:00+05:30,7.4,7.4,6.5,6.85,23077
2015-03-11 00:00:00+05:30,6.95,7.0,6.6,6.7,37839
2015-03-12 00:00:00+05:30,6.85,7.0,6.3,6.35,188372
2015-03-13 00:00:00+05:30,6.25,6.5,6.0,6.35,47505
2015-03-16 00:00:00+05:30,6.3,6.5,6.15,6.25,30535
2015-03-17 00:00:00+05:30,6.5,6.5,5.95,5.95,150429
2015-03-18 00:00:00+05:30,6.25,6.35,5.95,6.0,71938
2015-03-19 00:00:00+05:30,6.2,6.2,6.05,6.15,27289
2015-03-20 00:00:00+05:30,6.3,6.3,5.95,6.0,47044
2015-03-23 00:00:00+05:30,6.35,6.35,5.65,5.8,44948
2015-03-24 00:00:00+05:30,6.0,6.0,5.6,5.9,26352
2015-03-25 00:00:00+05:30,6.0,6.1,5.65,6.0,108203
2015-03-26 00:00:00+05:30,5.75,5.95,5.6,5.7,86547
2015-03-27 00:00:00+05:30,5.95,5.95,5.4,5.75,83924
2015-03-30 00:00:00+05:30,6.0,6.0,5.65,5.95,44314
2015-03-31 00:00:00+05:30,5.7,6.05,5.65,5.9,23052
2015-04-01 00:00:00+05:30,5.8,6.2,5.8,6.15,34842
2015-04-06 00:00:00+05:30,6.25,7.2,6.15,6.75,251653
2015-04-07 00:00:00+05:30,6.95,6.95,6.65,6.8,46681
2015-04-08 00:00:00+05:30,6.65,6.8,6.65,6.7,35165
2015-04-09 00:00:00+05:30,6.6,6.75,6.4,6.6,26383
2015-04-10 00:00:00+05:30,6.9,7.0,6.65,6.85,70915
2015-04-13 00:00:00+05:30,7.15,7.45,6.9,7.2,153442
2015-04-15 00:00:00+05:30,7.3,7.75,7.25,7.35,226269
2015-04-16 00:00:00+05:30,7.85,8.44,7.55,8.3,225212
2015-04-17 00:00:00+05:30,8.4,8.5,7.9,8.15,96233
2015-04-20 00:00:00+05:30,8.25,8.25,7.6,7.9,69848
2015-04-21 00:00:00+05:30,7.8,8.19,7.7,8.0,48223
2015-04-22 00:00:00+05:30,8.3,8.3,7.75,7.95,8617
2015-04-23 00:00:00+05:30,8.15,8.15,7.7,7.95,11195
2015-04-24 00:00:00+05:30,8.15,8.15,7.4,7.6,33817
2015-04-27 00:00:00+05:30,8.05,8.85,7.7,7.8,82791
2015-04-28 00:00:00+05:30,7.65,8.3,7.65,8.25,46163
2015-04-29 00:00:00+05:30,8.19,8.75,8.19,8.44,50890
2015-04-30 00:00:00+05:30,8.3,8.9,8.25,8.5,81083
2015-05-04 00:00:00+05:30,8.1,8.94,8.1,8.6,58611
2015-05-05 00:00:00+05:30,8.94,8.94,7.65,8.69,42722
2015-05-06 00:00:00+05:30,8.94,8.94,8.25,8.4,36043
2015-05-07 00:00:00+05:30,8.25,8.35,7.8,7.9,60571
2015-05-08 00:00:00+05:30,7.85,8.0,7.4,7.5,17786
2015-05-11 00:00:00+05:30,7.3,8.3,7.2,7.6,21792
2015-05-12 00:00:00+05:30,7.4,7.75,7.4,7.6,15402
2015-05-13 00:00:00+05:30,7.75,7.75,7.55,7.55,4900
2015-05-14 00:00:00+05:30,7.6,7.8,7.5,7.55,23771
2015-05-15 00:00:00+05:30,7.3,7.7,7.3,7.65,23204
2015-05-18 00:00:00+05:30,7.65,8.85,7.65,8.35,137364
2015-05-19 00:00:00+05:30,8.35,8.9,8.35,8.65,78075
2015-05-20 00:00:00+05:30,8.8,9.44,8.44,8.65,36899
2015-05-21 00:00:00+05:30,8.85,9.5,8.75,9.44,146590
2015-05-22 00:00:00+05:30,9.9,10.05,9.44,9.5,295540
2015-05-25 00:00:00+05:30,9.75,9.8,9.25,9.6,287950
2015-05-26 00:00:00+05:30,9.3,9.69,9.3,9.6,100278
2015-05-27 00:00:00+05:30,9.5,9.6,9.5,9.55,75537
2015-05-28 00:00:00+05:30,9.75,9.85,9.5,9.75,165913
2015-05-29 00:00:00+05:30,9.8,9.8,9.6,9.6,43848
2015-06-01 00:00:00+05:30,10.0,10.35,9.6,10.15,127302
2015-06-02 00:00:00+05:30,9.94,10.5,9.94,10.05,55535
2015-06-03 00:00:00+05:30,9.9,10.3,9.4,9.69,213399
2015-06-04 00:00:00+05:30,10.1,10.1,9.65,10.0,110701
2015-06-05 00:00:00+05:30,9.9,10.0,9.75,9.75,39426
2015-06-08 00:00:00+05:30,9.69,9.69,9.65,9.65,12782
2015-06-09 00:00:00+05:30,9.69,9.94,9.65,9.69,22734
2015-06-10 00:00:00+05:30,9.65,9.94,9.65,9.8,64823
2015-06-11 00:00:00+05:30,9.69,9.8,9.69,9.69,44396
2015-06-12 00:00:00+05:30,9.65,9.69,9.65,9.65,25490
2015-06-15 00:00:00+05:30,9.6,9.69,9.6,9.69,17420
2015-06-16 00:00:00+05:30,9.65,9.69,9.6,9.65,60443
2015-06-17 00:00:00+05:30,9.69,9.8,9.65,9.69,4826
2015-06-18 00:00:00+05:30,9.65,9.69,9.65,9.65,24100
2015-06-19 00:00:00+05:30,9.75,9.8,9.65,9.65,62452
2015-06-22 00:00:00+05:30,9.65,9.8,9.65,9.75,25559
2015-06-23 00:00:00+05:30,9.65,9.75,9.65,9.69,12885
2015-06-24 00:00:00+05:30,9.75,9.94,9.65,9.65,98129
2015-06-25 00:00:00+05:30,9.65,9.75,9.65,9.69,64275
2015-06-26 00:00:00+05:30,9.8,9.8,9.65,9.69,16617
2015-06-29 00:00:00+05:30,9.6,9.69,9.6,9.69,33896
2015-06-30 00:00:00+05:30,9.65,9.75,9.65,9.69,8785
2015-07-01 00:00:00+05:30,9.8,10.0,9.75,9.75,30790
2015-07-02 00:00:00+05:30,9.85,9.94,9.55,9.8,5280
2015-07-03 00:00:00+05:30,9.75,9.9,9.6,9.69,28309
2015-07-06 00:00:00+05:30,9.65,10.25,9.65,10.15,118615
2015-07-07 00:00:00+05:30,10.15,10.5,10.0,10.05,47780
2015-07-08 00:00:00+05:30,10.05,10.65,10.05,10.55,93103
2015-07-09 00:00:00+05:30,10.65,12.65,10.5,12.5,580225
2015-07-10 00:00:00+05:30,12.6,12.75,11.2,12.0,246015
2015-07-13 00:00:00+05:30,12.0,12.8,11.75,12.1,81380
2015-07-14 00:00:00+05:30,11.95,12.3,11.05,11.35,50784
2015-07-15 00:00:00+05:30,11.2,11.7,10.5,10.7,58917
2015-07-16 00:00:00+05:30,10.7,10.8,10.5,10.55,17181
2015-07-17 00:00:00+05:30,10.5,11.7,10.15,11.0,50990
2015-07-20 00:00:00+05:30,11.05,11.35,10.75,11.15,20323
2015-07-21 00:00:00+05:30,10.9,11.2,10.5,11.0,38592
2015-07-22 00:00:00+05:30,11.0,11.25,10.65,10.8,21377
2015-07-23 00:00:00+05:30,10.8,11.45,10.7,11.2,58528
2015-07-24 00:00:00+05:30,11.1,13.2,11.1,12.3,257865
2015-07-27 00:00:00+05:30,12.3,12.45,11.8,12.0,115129
2015-07-28 00:00:00+05:30,11.9,12.25,11.8,12.05,20135
2015-07-29 00:00:00+05:30,12.0,13.75,11.7,13.0,152523
2015-07-30 00:00:00+05:30,13.25,14.95,12.2,14.55,306593
2015-07-31 00:00:00+05:30,14.9,15.0,13.45,13.7,92744
2015-08-03 00:00:00+05:30,13.7,14.9,13.7,13.9,98242
2015-08-04 00:00:00+05:30,14.4,14.4,13.75,13.95,63869
2015-08-05 00:00:00+05:30,13.45,14.6,13.45,13.85,77952
2015-08-06 00:00:00+05:30,13.9,14.4,13.7,13.9,51508
2015-08-07 00:00:00+05:30,14.0,14.1,13.25,13.65,30326
2015-08-10 00:00:00+05:30,13.5,13.55,13.25,13.4,25665
2015-08-11 00:00:00+05:30,13.5,13.65,12.25,12.4,56920
2015-08-12 00:00:00+05:30,13.0,13.35,12.15,12.9,67957
2015-08-13 00:00:00+05:30,13.05,13.5,12.55,12.55,126752
2015-08-14 00:00:00+05:30,12.5,12.95,11.7,12.65,39887
2015-08-17 00:00:00+05:30,12.5,13.15,12.4,12.95,23301
2015-08-18 00:00:00+05:30,13.0,13.4,12.75,13.05,50986
2015-08-19 00:00:00+05:30,12.8,13.7,12.6,12.85,63339
2015-08-20 00:00:00+05:30,12.8,12.8,12.3,12.4,24494
2015-08-21 00:00:00+05:30,12.1,12.5,11.8,12.3,33614
2015-08-24 00:00:00+05:30,12.0,12.0,10.75,11.45,102114
2015-08-25 00:00:00+05:30,11.15,11.8,11.1,11.65,43895
2015-08-26 00:00:00+05:30,11.25,11.8,10.6,11.5,75370
2015-08-27 00:00:00+05:30,11.85,12.25,11.75,11.8,37471
2015-08-28 00:00:00+05:30,12.15,12.95,12.0,12.75,65662
2015-08-31 00:00:00+05:30,12.85,13.0,12.2,12.75,44043
2015-09-01 00:00:00+05:30,12.5,13.3,12.15,12.4,37100
2015-09-02 00:00:00+05:30,12.3,12.7,11.6,11.75,17842
2015-09-03 00:00:00+05:30,11.5,12.25,11.5,11.65,17918
2015-09-04 00:00:00+05:30,11.5,11.8,10.9,11.1,32043
2015-09-07 00:00:00+05:30,11.0,11.0,10.0,10.19,44358
2015-09-08 00:00:00+05:30,10.0,10.3,9.65,10.19,22469
2015-09-09 00:00:00+05:30,10.65,10.8,10.25,10.35,22732
2015-09-10 00:00:00+05:30,10.0,10.75,10.0,10.75,8867
2015-09-11 00:00:00+05:30,10.5,10.65,10.19,10.6,12703
2015-09-14 00:00:00+05:30,10.55,10.85,10.55,10.65,3440
2015-09-15 00:00:00+05:30,10.5,10.6,10.35,10.35,5632
2015-09-16 00:00:00+05:30,10.4,10.6,10.4,10.45,1837
2015-09-18 00:00:00+05:30,10.19,10.7,10.05,10.4,3659
2015-09-21 00:00:00+05:30,10.4,10.75,10.1,10.35,10782
2015-09-22 00:00:00+05:30,10.5,10.8,10.25,10.5,24650
2015-09-23 00:00:00+05:30,10.25,10.7,10.25,10.55,5656
2015-09-24 00:00:00+05:30,10.55,10.55,10.4,10.55,2255
2015-09-28 00:00:00+05:30,10.9,11.25,10.9,11.05,28476
2015-09-29 00:00:00+05:30,11.3,11.3,10.65,10.95,13428
2015-09-30 00:00:00+05:30,10.9,10.9,10.5,10.65,25494
2015-10-01 00:00:00+05:30,11.0,11.3,10.65,10.75,12312
2015-10-05 00:00:00+05:30,10.6,11.35,10.3,11.25,17862
2015-10-06 00:00:00+05:30,11.4,11.45,10.9,10.95,26776
2015-10-07 00:00:00+05:30,11.05,11.2,10.8,11.05,21573
2015-10-08 00:00:00+05:30,10.9,11.5,10.9,11.25,18431
2015-10-09 00:00:00+05:30,11.7,11.7,11.05,11.15,18093
2015-10-12 00:00:00+05:30,10.9,11.65,10.85,11.4,7544
2015-10-13 00:00:00+05:30,11.9,11.9,11.05,11.65,17080
2015-10-14 00:00:00+05:30,11.4,11.65,11.2,11.5,9780
2015-10-15 00:00:00+05:30,11.8,11.95,11.4,11.45,33146
2015-10-16 00:00:00+05:30,11.3,12.0,11.3,11.9,18116
2015-10-19 00:00:00+05:30,12.3,14.25,12.05,14.25,305367
2015-10-20 00:00:00+05:30,14.95,15.75,13.5,14.95,350250
2015-10-21 00:00:00+05:30,15.5,15.5,14.25,14.3,58525
2015-10-23 00:00:00+05:30,14.05,14.9,11.75,13.7,98891
2015-10-26 00:00:00+05:30,13.55,14.25,13.25,13.3,24784
2015-10-27 00:00:00+05:30,13.1,14.5,13.1,13.15,15403
2015-10-28 00:00:00+05:30,13.25,13.35,12.6,12.85,19909
2015-10-29 00:00:00+05:30,12.8,13.95,12.8,13.2,22699
2015-10-30 00:00:00+05:30,13.9,13.95,12.75,12.85,41420
2015-11-02 00:00:00+05:30,13.8,13.8,12.15,12.4,33752
2015-11-03 00:00:00+05:30,12.5,12.85,12.0,12.25,10158
2015-11-04 00:00:00+05:30,12.2,12.75,11.9,12.05,50384
2015-11-05 00:00:00+05:30,12.6,12.7,12.05,12.6,23258
2015-11-06 00:00:00+05:30,13.75,13.75,12.4,12.85,24410
2015-11-09 00:00:00+05:30,12.7,12.7,12.35,12.55,7975
2015-11-10 00:00:00+05:30,12.3,12.95,12.15,12.2,5839
2015-11-11 00:00:00+05:30,12.5,13.0,12.5,12.75,8451
2015-11-13 00:00:00+05:30,12.2,12.95,12.2,12.7,5093
2015-11-16 00:00:00+05:30,12.5,14.6,12.5,14.2,48218
2015-11-17 00:00:00+05:30,14.25,14.55,13.75,13.95,33362
2015-11-18 00:00:00+05:30,13.9,14.3,13.15,13.3,34502
2015-11-19 00:00:00+05:30,13.2,14.0,13.15,13.55,23819
2015-11-20 00:00:00+05:30,13.6,15.2,13.6,14.15,246559
2015-11-23 00:00:00+05:30,15.0,15.0,13.5,14.15,48679
2015-11-24 00:00:00+05:30,13.9,14.8,13.4,14.35,59588
2015-11-26 00:00:00+05:30,14.25,14.8,13.95,14.15,55562
2015-11-27 00:00:00+05:30,13.55,14.85,13.55,14.5,66292
2015-11-30 00:00:00+05:30,13.9,14.9,13.9,14.3,35325
2015-12-01 00:00:00+05:30,13.85,17.14,13.85,16.7,1072424
2015-12-02 00:00:00+05:30,16.8,17.3,15.35,15.8,242546
2015-12-03 00:00:00+05:30,15.7,18.39,15.6,17.25,423991
2015-12-04 00:00:00+05:30,17.39,18.85,16.89,18.35,352000
2015-12-07 00:00:00+05:30,18.25,19.3,18.0,18.64,452746
2015-12-08 00:00:00+05:30,18.75,20.5,15.65,18.89,580235
2015-12-09 00:00:00+05:30,19.0,20.5,18.0,18.25,324620
2015-12-10 00:00:00+05:30,18.0,19.7,18.0,19.5,141977
2015-12-11 00:00:00+05:30,19.85,21.6,18.05,20.65,601435
2015-12-14 00:00:00+05:30,21.4,22.1,20.6,21.45,373366
2015-12-15 00:00:00+05:30,21.45,22.6,21.1,21.8,313964
2015-12-16 00:00:00+05:30,21.5,26.15,21.5,26.15,1345833
2015-12-17 00:00:00+05:30,28.25,28.75,27.05,28.75,1420901
2015-12-18 00:00:00+05:30,28.9,31.6,28.9,31.6,1104241
2015-12-21 00:00:00+05:30,34.4,34.75,31.05,33.0,1594535
2015-12-22 00:00:00+05:30,33.29,33.29,31.35,31.35,117082
2015-12-23 00:00:00+05:30,29.8,30.5,29.8,29.8,103170
2015-12-24 00:00:00+05:30,28.85,29.7,28.35,28.35,1182194
2015-12-28 00:00:00+05:30,27.3,28.25,26.95,26.95,509992
2015-12-29 00:00:00+05:30,26.05,26.2,25.65,25.65,231229
2015-12-30 00:00:00+05:30,24.9,26.6,24.5,24.7,785188
2015-12-31 00:00:00+05:30,25.0,25.9,24.75,25.9,307514
2016-01-01 00:00:00+05:30,26.7,26.75,25.7,26.55,219498
2016-01-04 00:00:00+05:30,26.6,27.35,25.9,26.5,181677
2016-01-05 00:00:00+05:30,26.5,27.2,26.0,26.25,109649
2016-01-06 00:00:00+05:30,26.1,27.5,26.05,26.35,129277
2016-01-07 00:00:00+05:30,25.55,25.95,25.05,25.05,92398
2016-01-08 00:00:00+05:30,24.85,25.35,24.6,24.95,45831
2016-01-11 00:00:00+05:30,24.95,25.2,23.75,23.95,117852
2016-01-12 00:00:00+05:30,23.95,24.45,23.25,23.5,56092
2016-01-13 00:00:00+05:30,23.95,24.65,22.6,23.2,80528
2016-01-14 00:00:00+05:30,23.0,23.0,22.05,22.3,52904
2016-01-15 00:00:00+05:30,22.2,22.5,21.3,21.65,55849
2016-01-18 00:00:00+05:30,21.05,21.65,20.6,20.6,65873
2016-01-19 00:00:00+05:30,20.6,20.8,19.6,20.0,97396
2016-01-20 00:00:00+05:30,19.55,19.9,19.0,19.0,25141
2016-01-21 00:00:00+05:30,19.4,19.4,18.05,18.05,85838
2016-01-22 00:00:00+05:30,17.9,18.95,17.9,18.95,50639
2016-01-25 00:00:00+05:30,19.5,19.85,19.35,19.85,42035
2016-01-27 00:00:00+05:30,20.55,20.8,20.55,20.8,17362
2016-01-28 00:00:00+05:30,21.8,21.8,21.8,21.8,19174
2016-01-29 00:00:00+05:30,22.85,22.85,22.85,22.85,17762
2016-02-01 00:00:00+05:30,23.95,23.95,23.95,23.95,12048
2016-02-02 00:00:00+05:30,25.1,25.1,23.2,24.75,464359
2016-02-03 00:00:00+05:30,24.0,24.2,23.55,23.8,72653
2016-02-04 00:00:00+05:30,24.75,24.95,24.05,24.15,44093
2016-02-05 00:00:00+05:30,23.5,24.8,23.05,23.35,22977
2016-02-08 00:00:00+05:30,23.3,23.85,22.3,23.1,8732
2016-02-09 00:00:00+05:30,23.9,24.25,22.65,23.1,11902
2016-02-10 00:00:00+05:30,23.1,23.5,21.95,21.95,21808
2016-02-11 00:00:00+05:30,21.95,21.95,20.9,20.9,17146
2016-02-12 00:00:00+05:30,21.0,21.6,19.9,19.9,31206
2016-02-15 00:00:00+05:30,19.9,20.85,19.85,20.85,13377
2016-02-16 00:00:00+05:30,21.8,21.85,21.5,21.85,79249
2016-02-17 00:00:00+05:30,20.9,22.0,20.9,21.85,29627
2016-02-18 00:00:00+05:30,22.75,22.8,21.95,22.1,46417
2016-02-19 00:00:00+05:30,22.2,22.5,21.85,21.85,18052
2016-02-22 00:00:00+05:30,22.6,22.6,21.1,21.85,9920
2016-02-23 00:00:00+05:30,21.2,22.45,21.2,22.05,27551
2016-02-24 00:00:00+05:30,22.1,22.9,22.0,22.35,12294
2016-02-25 00:00:00+05:30,22.2,23.0,22.0,22.75,21940
2016-02-26 00:00:00+05:30,22.5,23.2,22.5,22.6,41226
2016-02-29 00:00:00+05:30,22.5,22.9,22.45,22.55,19258
2016-03-01 00:00:00+05:30,22.45,23.65,22.45,23.45,36156
2016-03-02 00:00:00+05:30,23.65,24.6,23.5,24.6,37551
2016-03-03 00:00:00+05:30,25.8,25.8,23.5,23.9,76870
2016-03-04 00:00:00+05:30,24.0,25.8,23.95,24.8,31344
2016-03-08 00:00:00+05:30,24.0,26.95,23.6,24.75,107892
2016-03-09 00:00:00+05:30,25.0,27.2,24.25,27.1,382485
2016-03-10 00:00:00+05:30,27.3,27.85,25.05,25.6,158495
2016-03-11 00:00:00+05:30,25.55,27.15,24.85,26.7,95470
2016-03-14 00:00:00+05:30,27.0,27.25,26.25,26.4,26170
2016-03-15 00:00:00+05:30,26.05,26.85,25.6,26.05,33873
2016-03-16 00:00:00+05:30,25.2,26.45,25.05,26.05,39064
2016-03-17 00:00:00+05:30,26.0,26.6,25.05,25.25,25760
2016-03-18 00:00:00+05:30,25.2,26.8,25.2,25.8,64928
2016-03-21 00:00:00+05:30,25.75,27.0,25.0,26.45,53729
2016-03-22 00:00:00+05:30,25.2,26.45,25.15,25.95,33039
2016-03-23 00:00:00+05:30,25.5,26.0,25.2,25.55,32813
2016-03-28 00:00:00+05:30,25.05,25.65,25.0,25.2,27333
2016-03-29 00:00:00+05:30,24.3,25.1,24.3,24.9,30147
2016-03-30 00:00:00+05:30,24.6,26.5,24.6,25.7,28013
2016-03-31 00:00:00+05:30,25.2,26.65,25.15,25.9,46719
2016-04-01 00:00:00+05:30,25.5,26.9,24.65,25.45,60296
2016-04-04 00:00:00+05:30,25.4,26.1,24.9,25.25,19249
2016-04-05 00:00:00+05:30,25.2,26.0,25.2,25.95,23891
2016-04-06 00:00:00+05:30,25.3,26.5,25.3,26.35,29745
2016-04-07 00:00:00+05:30,26.0,26.0,23.15,25.0,107217
2016-04-08 00:00:00+05:30,26.4,26.4,24.7,25.1,39962
2016-04-11 00:00:00+05:30,24.55,25.6,24.3,24.5,30785
2016-04-12 00:00:00+05:30,24.45,24.9,24.1,24.2,14604
2016-04-13 00:00:00+05:30,24.5,24.95,23.8,23.95,34759
2016-04-18 00:00:00+05:30,23.95,23.95,23.0,23.2,34414
2016-04-20 00:00:00+05:30,23.7,24.75,21.4,23.85,32672
2016-04-21 00:00:00+05:30,23.8,24.4,23.4,23.55,12693
2016-04-22 00:00:00+05:30,23.4,23.95,23.3,23.6,10492
2016-04-25 00:00:00+05:30,24.4,24.4,23.1,23.55,7784
2016-04-26 00:00:00+05:30,23.4,23.75,22.8,23.0,16556
2016-04-27 00:00:00+05:30,23.05,24.1,23.0,23.45,13537
2016-04-28 00:00:00+05:30,24.3,24.3,22.25,22.6,53234
2016-04-29 00:00:00+05:30,22.5,23.0,22.05,22.5,24048
2016-05-02 00:00:00+05:30,22.5,23.4,22.3,22.55,10202
2016-05-03 00:00:00+05:30,22.7,23.45,22.7,22.85,8812
2016-05-04 00:00:00+05:30,22.85,23.05,22.7,22.85,7337
2016-05-05 00:00:00+05:30,22.5,23.4,22.1,22.9,13912
2016-05-06 00:00:00+05:30,22.5,23.0,22.35,22.5,11313
2016-05-09 00:00:00+05:30,22.4,24.45,22.4,23.2,44316
2016-05-10 00:00:00+05:30,22.9,24.8,22.9,23.9,63430
2016-05-11 00:00:00+05:30,23.75,24.0,22.9,23.45,13769
2016-05-12 00:00:00+05:30,23.2,24.1,23.2,23.9,17777
2016-05-13 00:00:00+05:30,23.6,24.3,22.9,23.1,33986
2016-05-16 00:00:00+05:30,23.1,23.9,22.7,23.3,14669
2016-05-17 00:00:00+05:30,23.3,23.65,23.05,23.45,13707
2016-05-18 00:00:00+05:30,23.1,23.8,23.05,23.1,5010
2016-05-19 00:00:00+05:30,23.25,23.75,20.4,21.3,120167
2016-05-20 00:00:00+05:30,21.35,22.2,21.35,21.9,13142
2016-05-23 00:00:00+05:30,21.65,22.8,21.65,22.3,17896
2016-05-24 00:00:00+05:30,22.5,26.3,22.1,24.8,277850
2016-05-25 00:00:00+05:30,25.05,25.4,24.25,24.7,84536
2016-05-26 00:00:00+05:30,24.4,24.8,22.6,23.25,78544
2016-05-27 00:00:00+05:30,23.4,24.65,19.55,23.15,619035
2016-05-30 00:00:00+05:30,23.0,24.0,22.3,23.5,84426
2016-05-31 00:00:00+05:30,23.3,23.6,22.8,23.0,13960
2016-06-01 00:00:00+05:30,22.8,24.7,22.3,24.55,61780
2016-06-02 00:00:00+05:30,25.2,25.6,23.15,24.75,165333
2016-06-03 00:00:00+05:30,25.25,25.25,24.2,24.25,42450
2016-06-06 00:00:00+05:30,23.45,26.2,23.45,25.0,87886
2016-06-07 00:00:00+05:30,25.0,25.0,23.8,24.6,26249
2016-06-08 00:00:00+05:30,24.5,25.0,24.05,24.45,78500
2016-06-09 00:00:00+05:30,24.35,25.2,24.35,24.9,48448
2016-06-10 00:00:00+05:30,25.0,25.5,24.2,24.55,75612
2016-06-13 00:00:00+05:30,24.5,24.5,23.5,23.95,20179
2016-06-14 00:00:00+05:30,24.6,24.6,24.0,24.15,21249
2016-06-15 00:00:00+05:30,24.3,26.3,23.85,25.65,266806
2016-06-16 00:00:00+05:30,25.3,25.7,24.4,25.25,72596
2016-06-17 00:00:00+05:30,24.95,25.65,24.55,25.25,63364
2016-06-20 00:00:00+05:30,25.0,25.3,24.55,25.15,26593
2016-06-21 00:00:00+05:30,25.2,25.2,24.6,25.0,37847
2016-06-22 00:00:00+05:30,24.95,25.25,24.65,24.75,27902
2016-06-23 00:00:00+05:30,24.5,25.0,24.4,24.7,28283
2016-06-24 00:00:00+05:30,24.5,24.9,23.4,24.6,29649
2016-06-27 00:00:00+05:30,25.0,25.0,24.05,24.5,15239
2016-06-28 00:00:00+05:30,24.5,25.45,23.9,24.05,21787
2016-06-29 00:00:00+05:30,24.15,24.5,23.75,24.1,43296
2016-06-30 00:00:00+05:30,26.5,27.95,24.55,26.15,278630
2016-07-01 00:00:00+05:30,26.5,27.3,26.0,26.35,99838
2016-07-04 00:00:00+05:30,25.9,26.95,25.5,26.4,36329
2016-07-05 00:00:00+05:30,26.0,26.45,25.75,25.9,43908
2016-07-07 00:00:00+05:30,25.8,26.3,25.55,25.7,15555
2016-07-08 00:00:00+05:30,26.0,26.0,25.5,25.55,16489
2016-07-11 00:00:00+05:30,25.5,26.0,25.2,25.9,45376
2016-07-12 00:00:00+05:30,25.6,26.35,25.5,25.8,46470
2016-07-13 00:00:00+05:30,25.3,26.5,25.3,25.8,28351
2016-07-14 00:00:00+05:30,25.5,26.25,25.5,25.7,52425
2016-07-15 00:00:00+05:30,25.5,26.3,25.1,25.55,31820
2016-07-18 00:00:00+05:30,25.5,26.0,25.05,25.2,21082
2016-07-19 00:00:00+05:30,25.1,25.55,24.15,24.45,60524
2016-07-20 00:00:00+05:30,24.45,24.85,24.0,24.15,25296
2016-07-21 00:00:00+05:30,24.0,24.65,23.5,24.0,23853
2016-07-22 00:00:00+05:30,24.0,25.4,23.5,24.25,66963
2016-07-25 00:00:00+05:30,24.5,25.0,23.75,24.0,122326
2016-07-26 00:00:00+05:30,24.2,24.65,24.0,24.05,39766
2016-07-27 00:00:00+05:30,24.1,24.65,23.95,24.0,26206
2016-07-28 00:00:00+05:30,23.7,24.55,23.3,23.85,27765
2016-07-29 00:00:00+05:30,23.8,24.3,23.75,23.85,27498
2016-08-01 00:00:00+05:30,23.7,24.4,23.7,24.0,19801
2016-08-02 00:00:00+05:30,23.7,24.1,23.5,23.85,27124
2016-08-03 00:00:00+05:30,23.85,24.0,23.3,23.5,15817
2016-08-04 00:00:00+05:30,23.3,24.15,23.3,23.8,7115
2016-08-05 00:00:00+05:30,23.3,24.0,23.3,23.55,8010
2016-08-08 00:00:00+05:30,23.0,25.0,23.0,23.65,11213
2016-08-09 00:00:00+05:30,23.8,23.95,23.35,23.75,9577
2016-08-10 00:00:00+05:30,23.5,25.0,23.35,23.45,62970
2016-08-11 00:00:00+05:30,21.4,23.75,21.4,23.05,44163
2016-08-12 00:00:00+05:30,23.85,23.85,23.35,23.5,15359
2016-08-16 00:00:00+05:30,23.3,23.95,23.3,23.5,8420
2016-08-17 00:00:00+05:30,23.4,23.4,23.05,23.1,13441
2016-08-18 00:00:00+05:30,23.0,23.5,22.25,22.6,25478
2016-08-19 00:00:00+05:30,23.0,23.25,22.5,22.8,11306
2016-08-22 00:00:00+05:30,22.6,24.8,22.6,23.6,54698
2016-08-23 00:00:00+05:30,23.5,23.6,22.85,23.25,15870
2016-08-24 00:00:00+05:30,23.15,24.5,22.6,23.85,23552
2016-08-25 00:00:00+05:30,23.35,26.4,23.1,25.05,250527
2016-08-26 00:00:00+05:30,25.75,25.9,24.15,25.55,89336
2016-08-29 00:00:00+05:30,25.4,25.45,24.4,24.6,26231
2016-08-30 00:00:00+05:30,24.6,25.0,24.2,24.55,14841
2016-08-31 00:00:00+05:30,24.3,24.9,23.8,24.05,30539
2016-09-01 00:00:00+05:30,24.0,24.45,23.2,23.6,17383
2016-09-02 00:00:00+05:30,23.55,24.4,23.55,24.05,58971
2016-09-06 00:00:00+05:30,24.5,25.0,23.9,24.55,30053
2016-09-07 00:00:00+05:30,24.8,28.9,24.8,27.2,517002
2016-09-08 00:00:00+05:30,26.9,28.75,26.7,27.9,218096
2016-09-09 00:00:00+05:30,27.35,27.35,25.0,26.0,242148
2016-09-12 00:00:00+05:30,25.8,27.3,24.6,25.4,107788
2016-09-14 00:00:00+05:30,25.15,28.85,24.5,26.9,364697
2016-09-15 00:00:00+05:30,27.75,27.8,26.0,26.5,58366
2016-09-16 00:00:00+05:30,27.0,29.8,26.0,27.2,486847
2016-09-19 00:00:00+05:30,27.2,28.25,27.2,27.5,65659
2016-09-20 00:00:00+05:30,27.75,27.95,26.0,26.3,78714
2016-09-21 00:00:00+05:30,26.95,26.95,25.7,26.0,37885
2016-09-22 00:00:00+05:30,26.0,28.75,26.0,26.75,307076
2016-09-23 00:00:00+05:30,27.15,27.3,26.3,26.6,25359
2016-09-26 00:00:00+05:30,26.6,27.1,26.6,26.75,31546
2016-09-27 00:00:00+05:30,26.3,27.95,25.7,25.95,46566
2016-09-28 00:00:00+05:30,25.9,27.6,25.9,26.2,93103
2016-09-29 00:00:00+05:30,26.2,26.95,24.0,25.1,99872
2016-09-30 00:00:00+05:30,26.0,26.0,24.5,25.5,8390
2016-10-03 00:00:00+05:30,25.45,26.95,25.35,25.7,38413
2016-10-04 00:00:00+05:30,25.5,26.75,24.55,26.4,49358
2016-10-05 00:00:00+05:30,26.35,27.0,25.8,26.15,49770
2016-10-06 00:00:00+05:30,26.2,27.0,24.0,25.0,115030
2016-10-07 00:00:00+05:30,25.65,27.4,25.05,26.2,242141
2016-10-10 00:00:00+05:30,26.65,29.0,26.1,27.25,561900
2016-10-13 00:00:00+05:30,26.55,28.45,26.55,27.55,175311
2016-10-14 00:00:00+05:30,27.6,30.0,27.6,28.8,512192
2016-10-17 00:00:00+05:30,29.6,29.75,27.9,28.15,141974
2016-10-18 00:00:00+05:30,28.1,28.7,27.5,27.9,66308
2016-10-19 00:00:00+05:30,28.3,28.5,27.6,27.9,44737
2016-10-20 00:00:00+05:30,27.85,28.9,27.45,27.75,65374
2016-10-21 00:00:00+05:30,27.5,28.4,27.45,27.6,32594
2016-10-24 00:00:00+05:30,27.55,28.65,27.45,27.75,38289
2016-10-25 00:00:00+05:30,27.8,29.7,27.65,29.0,131026
2016-10-26 00:00:00+05:30,29.0,29.3,28.0,28.15,48606
2016-10-27 00:00:00+05:30,28.3,28.7,27.8,28.25,44380
2016-10-28 00:00:00+05:30,28.0,28.5,27.5,28.05,19137
2016-10-30 00:00:00+05:30,28.5,28.6,28.0,28.15,15769
2016-11-01 00:00:00+05:30,28.2,30.4,28.1,29.95,261686
2016-11-02 00:00:00+05:30,29.5,31.1,29.1,30.1,297262
2016-11-03 00:00:00+05:30,30.65,35.4,29.75,34.2,1023147
2016-11-04 00:00:00+05:30,34.25,36.2,31.85,32.5,323969
2016-11-07 00:00:00+05:30,33.4,34.3,32.05,32.8,91451
2016-11-08 00:00:00+05:30,32.8,33.9,32.0,32.85,66920
2016-11-09 00:00:00+05:30,30.0,32.05,27.55,31.5,217071
2016-11-10 00:00:00+05:30,32.6,34.15,30.8,31.3,69878
2016-11-11 00:00:00+05:30,31.5,31.5,29.1,29.7,97190
2016-11-15 00:00:00+05:30,32.25,32.25,28.15,28.55,60379
2016-11-16 00:00:00+05:30,28.35,29.7,28.0,28.2,37034
2016-11-17 00:00:00+05:30,28.0,28.35,27.0,27.25,44950
2016-11-18 00:00:00+05:30,28.4,28.75,26.9,27.25,29968
2016-11-21 00:00:00+05:30,27.0,27.5,25.5,26.15,72464
2016-11-22 00:00:00+05:30,26.5,28.0,26.5,27.75,34292
2016-11-23 00:00:00+05:30,29.4,29.4,28.0,29.0,38665
2016-11-24 00:00:00+05:30,28.95,29.0,28.25,28.95,26052
2016-11-25 00:00:00+05:30,28.35,30.1,28.35,29.0,16380
2016-11-28 00:00:00+05:30,30.0,30.0,28.3,28.95,11721
2016-11-29 00:00:00+05:30,29.0,30.9,29.0,29.9,28342
2016-11-30 00:00:00+05:30,31.0,33.1,30.65,31.65,151026
2016-12-01 00:00:00+05:30,32.0,32.0,29.7,29.85,54426
2016-12-02 00:00:00+05:30,30.45,30.45,28.65,29.15,20714
2016-12-05 00:00:00+05:30,29.0,29.75,28.1,28.6,48454
2016-12-06 00:00:00+05:30,28.4,32.05,28.4,29.85,179602
2016-12-07 00:00:00+05:30,29.85,30.5,28.7,29.25,25906
2016-12-08 00:00:00+05:30,34.0,35.1,33.6,35.1,1268103
2016-12-09 00:00:00+05:30,37.0,37.0,34.4,35.25,889925
2016-12-12 00:00:00+05:30,34.2,35.0,33.5,33.95,223673
2016-12-13 00:00:00+05:30,33.05,35.0,32.15,32.7,390552
2016-12-14 00:00:00+05:30,32.35,37.1,32.25,34.75,883837
2016-12-15 00:00:00+05:30,33.6,37.4,33.6,36.3,566725
2016-12-16 00:00:00+05:30,36.7,37.8,35.1,35.4,299360
2016-12-19 00:00:00+05:30,36.8,36.8,35.1,35.25,117238
2016-12-20 00:00:00+05:30,34.9,35.85,33.8,34.05,123979
2016-12-21 00:00:00+05:30,35.0,35.0,33.2,33.75,43150
2016-12-22 00:00:00+05:30,34.4,34.5,32.95,33.15,60987
2016-12-23 00:00:00+05:30,33.0,33.65,32.0,32.9,65887
2016-12-26 00:00:00+05:30,32.6,34.0,32.15,32.8,100930
2016-12-27 00:00:00+05:30,32.85,33.8,32.0,32.95,109624
2016-12-28 00:00:00+05:30,33.25,34.2,33.0,33.3,85873
2016-12-29 00:00:00+05:30,33.0,34.15,32.6,33.8,62392
2016-12-30 00:00:00+05:30,33.85,35.3,33.8,34.6,126599
2017-01-02 00:00:00+05:30,34.65,36.2,34.65,35.3,133394
2017-01-03 00:00:00+05:30,35.75,35.85,34.6,35.15,118761
2017-01-04 00:00:00+05:30,35.2,37.7,35.15,37.35,429340
2017-01-05 00:00:00+05:30,37.1,39.4,37.05,38.7,504048
2017-01-06 00:00:00+05:30,38.7,39.1,37.5,37.8,131052
2017-01-09 00:00:00+05:30,37.9,38.65,36.5,37.9,58100
2017-01-10 00:00:00+05:30,38.8,38.8,37.45,37.95,62187
2017-01-11 00:00:00+05:30,38.1,41.0,38.1,39.95,521142
2017-01-12 00:00:00+05:30,39.6,40.4,38.2,38.4,88258
2017-01-13 00:00:00+05:30,38.1,38.6,38.05,38.25,39624
2017-01-16 00:00:00+05:30,40.0,40.0,38.35,38.5,31032
2017-01-17 00:00:00+05:30,38.55,39.0,37.4,37.85,57753
2017-01-18 00:00:00+05:30,37.6,40.35,37.1,38.45,214678
2017-01-19 00:00:00+05:30,39.25,39.3,37.7,38.3,91960
2017-01-20 00:00:00+05:30,38.1,38.5,37.3,37.45,54924
2017-01-23 00:00:00+05:30,37.4,38.45,36.7,37.6,28527
2017-01-24 00:00:00+05:30,38.0,38.0,37.0,37.2,37219
2017-01-25 00:00:00+05:30,36.9,37.7,35.3,36.75,210826
2017-01-27 00:00:00+05:30,36.5,37.25,35.75,36.05,64261
2017-01-30 00:00:00+05:30,35.5,36.4,31.7,32.3,359371
2017-01-31 00:00:00+05:30,32.7,34.8,32.35,33.0,114120
2017-02-01 00:00:00+05:30,32.5,33.9,32.1,32.95,74176
2017-02-02 00:00:00+05:30,33.0,34.2,32.8,33.5,49581
2017-02-03 00:00:00+05:30,33.3,34.0,32.3,33.75,48751
2017-02-06 00:00:00+05:30,34.25,35.9,33.75,34.7,132671
2017-02-07 00:00:00+05:30,36.5,36.5,34.5,34.6,45924
2017-02-08 00:00:00+05:30,34.6,35.35,34.25,34.35,33670
2017-02-09 00:00:00+05:30,34.5,37.2,34.25,36.0,330219
2017-02-10 00:00:00+05:30,37.0,37.5,35.4,36.05,121000
2017-02-13 00:00:00+05:30,36.0,36.8,35.35,35.6,32118
2017-02-14 00:00:00+05:30,35.65,36.2,35.15,35.3,22880
2017-02-15 00:00:00+05:30,35.0,35.0,33.7,33.85,42469
2017-02-16 00:00:00+05:30,34.5,34.5,33.4,33.8,31395
2017-02-17 00:00:00+05:30,34.1,34.1,33.3,33.7,19415
2017-02-20 00:00:00+05:30,33.5,34.5,33.1,33.85,38342
2017-02-21 00:00:00+05:30,34.0,34.8,33.5,33.6,32112
2017-02-22 00:00:00+05:30,34.0,34.0,32.1,32.55,42701
2017-02-23 00:00:00+05:30,32.9,33.5,31.6,31.9,48206
2017-02-27 00:00:00+05:30,31.95,32.5,31.75,32.05,41218
2017-02-28 00:00:00+05:30,32.0,32.45,31.8,32.2,20527
2017-03-01 00:00:00+05:30,32.0,33.5,31.9,32.95,42886
2017-03-02 00:00:00+05:30,32.7,34.85,32.25,33.55,282174
2017-03-03 00:00:00+05:30,33.95,34.2,32.6,33.65,48641
2017-03-06 00:00:00+05:30,33.2,33.5,32.25,32.45,70065
2017-03-07 00:00:00+05:30,32.2,32.9,32.0,32.3,28368
2017-03-08 00:00:00+05:30,32.1,32.5,31.65,31.7,20610
2017-03-09 00:00:00+05:30,31.55,31.95,30.75,31.1,111195
2017-03-10 00:00:00+05:30,30.65,31.85,30.65,31.3,25269
2017-03-14 00:00:00+05:30,32.45,32.45,31.0,31.4,69497
2017-03-15 00:00:00+05:30,31.35,32.4,31.35,31.9,37445
2017-03-16 00:00:00+05:30,32.05,32.8,31.85,32.0,42807
2017-03-17 00:00:00+05:30,32.0,32.6,31.85,31.9,29016
2017-03-20 00:00:00+05:30,32.9,32.9,31.7,32.0,9432
2017-03-21 00:00:00+05:30,31.85,32.3,31.8,32.05,54836
2017-03-22 00:00:00+05:30,31.7,32.5,31.25,31.3,21092
2017-03-23 00:00:00+05:30,31.2,32.9,31.05,32.35,60328
2017-03-24 00:00:00+05:30,32.0,34.4,32.0,32.8,90614
2017-03-27 00:00:00+05:30,33.25,34.0,32.4,32.6,65253
2017-03-28 00:00:00+05:30,32.55,34.0,32.15,32.35,36787
2017-03-29 00:00:00+05:30,32.5,33.0,31.5,31.75,86414
2017-03-30 00:00:00+05:30,32.3,33.4,32.3,33.3,59919
2017-03-31 00:00:00+05:30,33.7,33.9,31.9,32.85,107805
2017-04-03 00:00:00+05:30,32.85,33.25,32.75,32.85,56778
2017-04-05 00:00:00+05:30,32.7,34.0,32.3,32.6,95408
2017-04-06 00:00:00+05:30,32.6,33.3,32.6,33.0,41491
2017-04-07 00:00:00+05:30,33.45,33.45,31.0,31.55,117998
2017-04-10 00:00:00+05:30,31.9,32.6,31.85,32.25,84074
2017-04-11 00:00:00+05:30,32.25,32.7,31.95,32.25,29988
2017-04-12 00:00:00+05:30,32.3,33.0,31.0,31.6,92493
2017-04-13 00:00:00+05:30,31.6,32.0,31.2,31.3,75729
2017-04-17 00:00:00+05:30,31.25,31.95,30.7,30.8,112335
2017-04-18 00:00:00+05:30,31.0,31.35,29.8,30.0,105737
2017-04-19 00:00:00+05:30,30.0,30.1,29.7,29.95,55994
2017-04-20 00:00:00+05:30,30.0,30.4,29.75,30.0,131865
2017-04-21 00:00:00+05:30,30.5,31.3,30.3,30.65,61985
2017-04-24 00:00:00+05:30,30.5,31.4,29.75,29.95,126121
2017-04-25 00:00:00+05:30,29.8,30.0,28.1,28.7,247725
2017-04-26 00:00:00+05:30,28.7,30.0,28.5,28.95,128261
2017-04-27 00:00:00+05:30,29.0,29.4,28.65,29.0,38237
2017-04-28 00:00:00+05:30,29.4,29.4,28.55,29.0,33101
2017-05-02 00:00:00+05:30,29.45,30.5,28.6,29.2,108518
2017-05-03 00:00:00+05:30,29.1,29.25,28.8,28.95,18089
2017-05-04 00:00:00+05:30,28.65,29.65,28.65,29.15,39573
2017-05-05 00:00:00+05:30,28.9,29.35,28.65,28.9,32220
2017-05-08 00:00:00+05:30,28.75,30.8,28.7,29.15,157630
2017-05-09 00:00:00+05:30,29.15,29.6,29.0,29.4,28023
2017-05-10 00:00:00+05:30,29.4,33.5,29.1,30.7,461218
2017-05-11 00:00:00+05:30,31.0,32.4,31.0,31.2,251883
2017-05-12 00:00:00+05:30,31.35,31.6,30.5,31.15,52688
2017-05-15 00:00:00+05:30,31.15,31.9,29.7,29.95,56623
2017-05-16 00:00:00+05:30,30.0,30.4,29.5,29.75,33885
2017-05-17 00:00:00+05:30,29.1,30.15,29.1,29.6,50569
2017-05-18 00:00:00+05:30,29.35,30.45,29.05,29.15,34463
2017-05-19 00:00:00+05:30,29.25,29.9,28.7,28.9,32480
2017-05-22 00:00:00+05:30,29.0,29.45,28.25,28.65,20624
2017-05-23 00:00:00+05:30,29.0,29.0,27.1,28.05,52037
2017-05-24 00:00:00+05:30,28.05,28.55,26.8,27.35,63868
2017-05-25 00:00:00+05:30,27.05,28.55,27.0,28.4,23243
2017-05-26 00:00:00+05:30,28.5,29.75,28.2,28.75,58611
2017-05-29 00:00:00+05:30,28.65,29.3,28.65,28.95,24207
2017-05-30 00:00:00+05:30,27.4,28.65,27.1,27.6,28570
2017-05-31 00:00:00+05:30,27.5,28.25,27.5,27.85,13739
2017-06-01 00:00:00+05:30,28.0,28.1,27.15,27.25,30038
2017-06-02 00:00:00+05:30,27.55,27.85,27.25,27.45,17591
2017-06-05 00:00:00+05:30,27.5,28.2,27.5,27.6,20677
2017-06-06 00:00:00+05:30,27.6,27.7,27.25,27.3,13478
2017-06-07 00:00:00+05:30,27.25,27.75,27.0,27.1,19473
2017-06-08 00:00:00+05:30,27.1,27.5,26.1,26.3,41556
2017-06-09 00:00:00+05:30,26.1,28.65,26.1,26.95,45742
2017-06-12 00:00:00+05:30,27.0,27.15,26.4,26.95,18706
2017-06-13 00:00:00+05:30,27.0,28.6,26.6,27.95,142287
2017-06-14 00:00:00+05:30,27.7,28.1,27.0,27.1,30890
2017-06-15 00:00:00+05:30,27.1,27.3,26.55,26.9,17885
2017-06-16 00:00:00+05:30,26.8,27.1,26.5,26.75,31957
2017-06-19 00:00:00+05:30,26.75,27.2,26.75,26.85,15458
2017-06-20 00:00:00+05:30,27.15,27.15,26.55,26.7,24330
2017-06-21 00:00:00+05:30,26.65,26.75,26.5,26.55,9485
2017-06-22 00:00:00+05:30,26.65,27.15,26.45,26.5,62694
2017-06-23 00:00:00+05:30,26.5,26.9,25.5,25.95,27803
2017-06-27 00:00:00+05:30,26.85,26.85,24.85,25.0,37173
2017-06-28 00:00:00+05:30,24.8,25.8,24.25,24.45,40660
2017-06-29 00:00:00+05:30,24.5,24.9,23.75,24.55,45965
2017-06-30 00:00:00+05:30,24.25,25.1,23.95,24.1,44551
2017-07-03 00:00:00+05:30,24.15,24.7,24.15,24.35,8615
2017-07-04 00:00:00+05:30,24.3,24.95,24.15,24.65,14596
2017-07-05 00:00:00+05:30,24.7,25.65,24.7,25.15,16122
2017-07-06 00:00:00+05:30,25.95,25.95,24.6,25.15,17717
2017-07-07 00:00:00+05:30,25.05,25.7,24.6,25.25,34453
2017-07-10 00:00:00+05:30,24.8,25.75,24.8,25.1,8351
2017-07-11 00:00:00+05:30,24.85,25.75,24.1,24.6,13895
2017-07-12 00:00:00+05:30,24.6,25.15,24.5,24.6,14308
2017-07-13 00:00:00+05:30,24.6,25.0,24.5,24.55,37474
2017-07-14 00:00:00+05:30,24.5,25.15,24.5,24.95,17637
2017-07-17 00:00:00+05:30,25.0,25.75,24.8,25.6,39145
2017-07-18 00:00:00+05:30,25.35,25.6,24.5,24.85,41632
2017-07-19 00:00:00+05:30,24.75,25.1,24.25,24.4,18944
2017-07-20 00:00:00+05:30,24.7,25.15,24.45,24.9,26055
2017-07-21 00:00:00+05:30,24.8,25.0,24.0,24.75,16730
2017-07-24 00:00:00+05:30,24.75,25.2,24.75,24.8,24326
2017-07-25 00:00:00+05:30,25.5,25.5,24.3,24.8,51248
2017-07-26 00:00:00+05:30,24.65,25.0,24.45,24.55,38857
2017-07-27 00:00:00+05:30,24.55,24.6,23.45,23.7,133535
2017-07-28 00:00:00+05:30,24.0,24.45,23.0,23.2,108888
2017-07-31 00:00:00+05:30,23.2,23.7,22.95,23.0,38992
2017-08-01 00:00:00+05:30,23.05,23.8,22.9,23.4,90572
2017-08-02 00:00:00+05:30,23.1,23.45,22.8,23.05,19506
2017-08-03 00:00:00+05:30,23.0,23.3,22.1,22.4,37729
2017-08-04 00:00:00+05:30,22.3,22.5,22.0,22.05,44240
2017-08-07 00:00:00+05:30,22.05,22.7,21.8,21.95,43376
2017-08-08 00:00:00+05:30,21.95,21.95,20.75,21.0,33294
2017-08-09 00:00:00+05:30,22.5,22.5,20.2,20.5,42243
2017-08-10 00:00:00+05:30,20.3,20.45,19.5,19.6,42944
2017-08-11 00:00:00+05:30,19.1,20.55,18.15,19.9,33962
2017-08-14 00:00:00+05:30,20.1,23.85,19.55,23.65,100864
2017-08-16 00:00:00+05:30,23.95,27.5,22.15,27.15,356832
2017-08-17 00:00:00+05:30,26.5,29.7,26.5,27.9,250449
2017-08-18 00:00:00+05:30,27.45,28.45,26.5,27.55,95723
2017-08-21 00:00:00+05:30,28.4,28.4,26.25,26.65,54707
2017-08-22 00:00:00+05:30,27.9,27.9,24.0,24.25,73437
2017-08-23 00:00:00+05:30,24.7,24.9,23.1,23.85,45431
2017-08-24 00:00:00+05:30,23.85,24.45,23.2,23.85,22450
2017-08-28 00:00:00+05:30,23.9,24.6,23.0,23.55,23522
2017-08-29 00:00:00+05:30,24.25,24.25,23.15,23.45,3747
2017-08-30 00:00:00+05:30,23.55,23.55,23.1,23.2,8367
2017-08-31 00:00:00+05:30,23.9,23.9,22.75,22.85,25651
2017-09-01 00:00:00+05:30,23.0,23.75,23.0,23.55,13335
2017-09-04 00:00:00+05:30,24.75,24.75,23.1,24.45,20073
2017-09-05 00:00:00+05:30,24.45,25.6,24.45,24.5,17724
2017-09-06 00:00:00+05:30,24.45,24.5,23.75,23.95,17330
2017-09-07 00:00:00+05:30,24.05,24.35,23.8,23.8,4010
2017-09-08 00:00:00+05:30,24.8,24.8,23.7,24.0,3903
2017-09-11 00:00:00+05:30,23.9,24.4,23.4,23.7,10549
2017-09-12 00:00:00+05:30,23.7,24.45,23.55,23.7,10781
2017-09-13 00:00:00+05:30,23.55,24.35,23.5,23.65,25948
2017-09-14 00:00:00+05:30,24.0,24.8,23.7,23.8,24222
2017-09-15 00:00:00+05:30,23.5,24.9,23.0,24.6,44963
2017-09-18 00:00:00+05:30,24.6,25.5,24.2,24.4,12966
2017-09-19 00:00:00+05:30,23.7,28.5,23.65,26.85,382630
2017-09-20 00:00:00+05:30,27.3,27.8,25.2,26.55,172898
2017-09-21 00:00:00+05:30,26.5,26.5,25.4,25.6,25898
2017-09-22 00:00:00+05:30,25.4,25.7,23.55,24.1,71481
2017-09-25 00:00:00+05:30,23.6,24.6,23.0,23.7,30155
2017-09-26 00:00:00+05:30,23.95,24.65,23.15,24.3,14314
2017-09-27 00:00:00+05:30,24.35,25.2,23.65,24.2,35046
2017-11-16 00:00:00+05:30,25.45,25.75,24.75,24.95,38103
2017-11-17 00:00:00+05:30,24.7,25.6,24.4,25.0,45313
2017-11-20 00:00:00+05:30,24.75,25.4,24.75,25.0,14317
2017-11-21 00:00:00+05:30,25.25,25.35,24.5,24.95,21609
2017-11-22 00:00:00+05:30,25.0,26.9,24.5,26.2,97451
2017-11-23 00:00:00+05:30,26.95,27.6,26.55,26.95,232717
2017-11-24 00:00:00+05:30,26.95,27.4,26.05,27.05,56414
2017-11-27 00:00:00+05:30,27.05,27.5,26.25,26.55,66134
2017-11-28 00:00:00+05:30,26.55,27.5,26.3,26.55,57655
2017-11-29 00:00:00+05:30,26.5,26.75,26.1,26.15,20444
2017-11-30 00:00:00+05:30,26.0,26.75,25.25,25.95,34767
2017-12-01 00:00:00+05:30,25.95,26.65,25.65,25.85,65269
2017-12-04 00:00:00+05:30,26.5,26.5,25.25,25.3,26779
2017-12-05 00:00:00+05:30,25.95,26.25,24.9,25.15,21877
2017-12-06 00:00:00+05:30,25.15,28.45,25.0,26.15,151123
2017-12-07 00:00:00+05:30,26.15,27.8,26.15,26.95,91198
2017-12-08 00:00:00+05:30,26.95,29.4,26.85,28.0,517268
2017-12-11 00:00:00+05:30,28.0,30.8,28.0,29.2,730344
2017-12-12 00:00:00+05:30,29.5,29.5,27.6,27.9,103660
2017-12-13 00:00:00+05:30,27.9,29.9,26.85,27.05,176048
2017-12-14 00:00:00+05:30,27.55,28.2,27.0,27.6,74357
2017-12-15 00:00:00+05:30,28.0,28.25,27.4,27.65,58777
2017-12-18 00:00:00+05:30,27.2,28.4,26.85,27.5,54297
2017-12-19 00:00:00+05:30,27.5,29.25,27.35,27.85,101570
2017-12-20 00:00:00+05:30,27.85,28.5,27.7,28.0,79056
2017-12-21 00:00:00+05:30,28.0,29.25,28.0,28.75,118370
2017-12-22 00:00:00+05:30,29.25,29.45,28.5,28.65,57848
2017-12-26 00:00:00+05:30,28.65,30.5,28.65,29.15,123094
2017-12-27 00:00:00+05:30,28.9,30.15,28.7,28.8,73317
2017-12-28 00:00:00+05:30,29.0,29.5,28.5,28.8,61720
2017-12-29 00:00:00+05:30,28.8,29.8,28.8,29.15,69722
2018-01-01 00:00:00+05:30,29.15,34.95,29.15,34.5,1204415
2018-01-02 00:00:00+05:30,35.9,36.8,32.35,33.6,590874
2018-01-03 00:00:00+05:30,33.85,34.6,32.4,33.0,207126
2018-01-04 00:00:00+05:30,33.0,39.35,33.0,38.8,1339824
2018-01-05 00:00:00+05:30,38.2,38.65,36.25,36.65,465694
2018-01-08 00:00:00+05:30,37.3,38.6,36.15,37.4,378540
2018-01-09 00:00:00+05:30,37.1,39.0,36.2,37.85,362218
2018-01-10 00:00:00+05:30,37.7,39.4,36.3,36.65,207622
2018-01-11 00:00:00+05:30,36.9,37.5,35.6,37.15,214978
2018-01-12 00:00:00+05:30,37.5,38.4,36.0,37.7,332921
2018-01-15 00:00:00+05:30,37.9,38.6,36.75,36.9,276901
2018-01-16 00:00:00+05:30,37.2,38.0,36.1,36.2,324027
2018-01-17 00:00:00+05:30,36.2,36.45,33.7,34.95,89851
2018-01-18 00:00:00+05:30,35.2,36.0,34.1,34.5,125266
2018-01-19 00:00:00+05:30,34.75,34.75,33.25,33.75,76137
2018-01-22 00:00:00+05:30,34.1,34.9,33.3,33.75,69356
2018-01-23 00:00:00+05:30,33.9,34.4,33.4,33.7,45874
2018-01-24 00:00:00+05:30,33.6,33.95,32.1,32.35,65431
2018-01-25 00:00:00+05:30,32.65,33.3,32.05,32.55,50645
2018-01-29 00:00:00+05:30,32.3,33.0,30.05,30.65,114824
2018-01-30 00:00:00+05:30,30.65,30.65,27.9,28.35,154096
2018-01-31 00:00:00+05:30,28.5,29.35,27.75,28.8,70014
2018-02-01 00:00:00+05:30,28.5,30.1,28.35,29.8,69554
2018-02-02 00:00:00+05:30,29.5,29.5,28.0,28.35,76576
2018-02-05 00:00:00+05:30,28.0,28.0,26.4,27.55,49727
2018-02-06 00:00:00+05:30,26.3,29.5,24.05,28.9,834172
2018-02-07 00:00:00+05:30,28.9,29.7,28.2,28.6,67944
2018-02-08 00:00:00+05:30,28.65,31.7,28.35,30.25,149136
2018-02-09 00:00:00+05:30,29.2,30.4,28.5,29.75,78246
2018-02-12 00:00:00+05:30,30.2,31.0,29.05,29.55,288960
2018-02-14 00:00:00+05:30,30.0,30.4,29.0,29.25,82001
2018-02-15 00:00:00+05:30,29.95,29.95,28.75,28.8,36126
2018-02-16 00:00:00+05:30,28.7,29.4,28.0,28.25,22888
2018-02-19 00:00:00+05:30,27.6,29.4,27.25,28.5,168100
2018-02-20 00:00:00+05:30,28.2,28.45,27.5,28.05,21524
2018-02-21 00:00:00+05:30,28.25,28.4,27.7,27.95,9267
2018-02-22 00:00:00+05:30,28.0,28.3,26.55,27.15,10933
2018-02-23 00:00:00+05:30,27.9,29.4,27.5,28.85,40638
2018-02-26 00:00:00+05:30,29.4,32.5,28.35,29.15,83870
2018-02-27 00:00:00+05:30,29.45,29.5,28.1,28.25,16195
2018-02-28 00:00:00+05:30,28.0,28.75,27.7,28.15,106852
2018-03-01 00:00:00+05:30,28.4,28.6,27.6,27.75,34740
2018-03-05 00:00:00+05:30,28.1,28.3,27.1,27.45,36047
2018-03-06 00:00:00+05:30,28.0,28.2,26.8,27.05,49729
2018-03-07 00:00:00+05:30,26.5,28.0,26.25,26.95,56458
2018-03-08 00:00:00+05:30,26.95,26.95,26.45,26.6,18211
2018-03-09 00:00:00+05:30,26.25,26.95,26.0,26.5,26802
2018-03-12 00:00:00+05:30,26.65,27.05,26.4,26.75,20040
2018-03-13 00:00:00+05:30,26.5,27.9,26.45,27.4,29423
2018-03-14 00:00:00+05:30,27.05,30.6,27.0,30.25,128134
2018-03-15 00:00:00+05:30,30.15,30.5,28.5,28.65,31998
2018-03-16 00:00:00+05:30,28.95,30.5,28.35,28.85,69051
2018-03-19 00:00:00+05:30,28.85,30.5,27.5,28.95,49744
2018-03-20 00:00:00+05:30,28.55,28.9,27.6,28.1,51825
2018-03-21 00:00:00+05:30,28.9,29.4,27.6,27.7,11109
2018-03-22 00:00:00+05:30,28.9,29.4,27.25,27.35,27394
2018-03-23 00:00:00+05:30,26.1,27.45,26.05,26.25,48159
2018-03-26 00:00:00+05:30,26.25,26.8,25.0,25.55,246278
2018-03-27 00:00:00+05:30,25.8,26.0,25.0,25.25,90734
2018-03-28 00:00:00+05:30,25.5,25.75,24.5,24.55,53053
2018-04-02 00:00:00+05:30,25.45,25.7,24.6,24.8,68222
2018-04-03 00:00:00+05:30,24.7,25.55,24.05,24.9,212043
2018-04-04 00:00:00+05:30,25.85,27.35,25.15,25.6,52601
2018-04-05 00:00:00+05:30,25.75,27.75,25.6,27.05,125111
2018-04-06 00:00:00+05:30,27.65,27.7,26.5,27.2,24821
2018-04-09 00:00:00+05:30,27.0,28.0,26.6,27.1,108350
2018-04-10 00:00:00+05:30,27.1,27.75,26.6,27.2,40344
2018-04-11 00:00:00+05:30,27.2,27.7,25.9,26.4,85472
2018-04-12 00:00:00+05:30,26.3,27.25,26.05,26.15,116092
2018-04-13 00:00:00+05:30,26.45,28.1,26.4,27.4,142960
2018-04-16 00:00:00+05:30,27.2,27.5,26.15,26.4,98479
2018-04-17 00:00:00+05:30,27.2,27.2,26.65,26.85,22964
2018-04-18 00:00:00+05:30,27.0,27.25,26.6,26.8,10815
2018-04-19 00:00:00+05:30,26.8,27.15,26.75,27.0,13237
2018-04-20 00:00:00+05:30,27.0,27.7,26.55,26.8,6821
2018-04-23 00:00:00+05:30,27.25,27.35,26.0,26.65,60102
2018-04-24 00:00:00+05:30,27.0,27.7,26.35,26.85,67272
2018-04-25 00:00:00+05:30,26.85,27.3,26.0,26.05,81962
2018-04-26 00:00:00+05:30,26.05,26.9,25.6,26.45,24854
2018-04-27 00:00:00+05:30,27.0,27.5,26.25,27.1,39215
2018-04-30 00:00:00+05:30,27.5,27.75,27.15,27.55,43476
2018-05-02 00:00:00+05:30,28.6,28.6,26.3,26.4,33957
2018-05-03 00:00:00+05:30,27.3,27.3,26.0,26.5,23307
2018-05-04 00:00:00+05:30,27.25,27.75,26.35,27.7,38549
2018-05-07 00:00:00+05:30,27.5,28.7,27.15,28.5,52133
2018-05-08 00:00:00+05:30,28.5,29.0,27.55,28.25,48730
2018-05-09 00:00:00+05:30,28.25,28.75,27.35,27.45,50899
2018-05-10 00:00:00+05:30,27.45,28.6,27.0,27.15,36529
2018-05-11 00:00:00+05:30,27.15,27.15,26.8,27.05,18827
2018-05-14 00:00:00+05:30,27.7,27.7,26.55,26.7,11094
2018-05-15 00:00:00+05:30,26.7,27.1,26.25,26.6,11669
2018-05-16 00:00:00+05:30,26.6,26.7,26.1,26.35,10927
2018-05-17 00:00:00+05:30,27.4,27.4,26.4,27.0,17278
2018-05-18 00:00:00+05:30,27.0,27.05,26.6,26.7,6469
2018-05-21 00:00:00+05:30,26.75,27.15,24.45,24.95,45497
2018-05-22 00:00:00+05:30,25.0,25.7,24.05,24.25,73614
2018-05-23 00:00:00+05:30,24.75,24.95,24.2,24.45,32052
2018-05-24 00:00:00+05:30,24.4,24.6,23.7,24.1,41146
2018-05-25 00:00:00+05:30,23.95,24.4,23.9,24.35,8010
2018-05-28 00:00:00+05:30,24.35,25.25,23.9,24.7,51292
2018-05-29 00:00:00+05:30,24.65,25.3,24.65,25.1,23611
2018-05-30 00:00:00+05:30,25.1,25.8,24.65,25.45,42015
2018-05-31 00:00:00+05:30,25.0,25.2,24.3,24.4,22579
2018-06-01 00:00:00+05:30,24.25,24.65,23.5,23.6,14027
2018-06-04 00:00:00+05:30,23.75,24.0,21.0,22.15,90424
2018-06-05 00:00:00+05:30,21.8,22.3,21.5,22.25,17796
2018-06-06 00:00:00+05:30,22.05,22.4,21.15,22.2,14167
2018-06-07 00:00:00+05:30,22.5,22.7,22.5,22.5,7769
2018-06-08 00:00:00+05:30,22.15,22.35,21.25,21.85,42515
2018-06-11 00:00:00+05:30,21.8,21.95,20.2,21.55,47887
2018-06-12 00:00:00+05:30,21.8,23.0,21.75,22.35,33910
2018-06-13 00:00:00+05:30,22.55,23.5,22.5,23.35,21124
2018-06-14 00:00:00+05:30,22.55,24.0,22.55,23.65,31099
2018-06-15 00:00:00+05:30,23.65,23.7,23.2,23.25,10224
2018-06-18 00:00:00+05:30,23.25,23.5,22.7,23.3,10124
2018-06-19 00:00:00+05:30,23.0,23.0,22.45,22.55,5262
2018-06-20 00:00:00+05:30,22.6,22.75,22.0,22.25,8592
2018-06-21 00:00:00+05:30,22.1,22.75,22.0,22.3,6777
2018-06-22 00:00:00+05:30,22.2,22.5,22.1,22.3,12025
2018-06-25 00:00:00+05:30,21.5,23.25,21.5,23.0,13308
2018-06-26 00:00:00+05:30,22.9,22.9,22.55,22.7,8710
2018-06-27 00:00:00+05:30,22.7,22.7,19.6,20.15,124047
2018-06-28 00:00:00+05:30,20.35,23.0,20.25,22.05,103316
2018-06-29 00:00:00+05:30,22.0,22.45,21.55,22.35,20140
2018-07-02 00:00:00+05:30,22.95,22.95,21.15,21.55,8834
2018-07-03 00:00:00+05:30,21.75,22.7,21.3,22.25,34569
2018-07-04 00:00:00+05:30,22.25,26.7,21.95,26.1,466788
2018-07-05 00:00:00+05:30,27.75,31.3,25.5,31.15,1296364
2018-07-06 00:00:00+05:30,31.3,32.95,28.4,31.75,626986
2018-07-09 00:00:00+05:30,32.45,34.0,31.55,32.05,317929
2018-07-10 00:00:00+05:30,31.1,31.85,30.1,31.15,107178
2018-07-11 00:00:00+05:30,31.1,31.1,28.5,29.85,160463
2018-07-12 00:00:00+05:30,29.0,30.9,28.15,28.65,267856
2018-07-13 00:00:00+05:30,28.05,28.95,26.4,26.7,178883
2018-07-16 00:00:00+05:30,26.7,27.3,25.25,26.25,85881
2018-07-17 00:00:00+05:30,26.0,27.7,26.0,26.2,155704
2018-07-18 00:00:00+05:30,26.05,26.9,24.5,24.7,236000
2018-07-19 00:00:00+05:30,24.7,25.25,23.4,24.2,131671
2018-07-20 00:00:00+05:30,24.25,24.9,23.5,23.75,32657
2018-07-23 00:00:00+05:30,23.8,25.7,23.8,25.3,26376
2018-07-24 00:00:00+05:30,24.75,26.0,24.75,25.3,53847
2018-07-25 00:00:00+05:30,25.3,26.1,24.8,25.0,202527
2018-07-26 00:00:00+05:30,25.0,25.45,22.65,22.9,337735
2018-07-27 00:00:00+05:30,23.1,24.5,23.0,23.75,58294
2018-07-30 00:00:00+05:30,23.8,24.8,23.8,24.35,34751
2018-07-31 00:00:00+05:30,24.5,25.6,24.15,24.85,77745
2018-08-01 00:00:00+05:30,24.8,27.3,24.6,26.45,408490
2018-08-02 00:00:00+05:30,26.55,27.25,24.25,26.1,668605
2018-08-03 00:00:00+05:30,26.6,27.2,26.0,26.25,389207
2018-08-06 00:00:00+05:30,26.9,28.3,26.6,27.95,131499
2018-08-07 00:00:00+05:30,28.05,29.2,26.6,26.8,291115
2018-08-08 00:00:00+05:30,26.8,28.45,26.7,27.0,139661
2018-08-09 00:00:00+05:30,27.0,27.1,26.35,26.8,32616
2018-08-10 00:00:00+05:30,26.7,28.0,26.55,26.8,67680
2018-08-13 00:00:00+05:30,26.0,27.7,26.0,27.15,86242
2018-08-14 00:00:00+05:30,27.15,28.4,27.05,27.9,158313
2018-08-16 00:00:00+05:30,27.65,29.75,27.35,28.75,183893
2018-08-17 00:00:00+05:30,28.95,30.3,27.0,29.25,682919
2018-08-20 00:00:00+05:30,29.6,29.6,28.6,29.35,59844
2018-08-21 00:00:00+05:30,29.0,30.3,28.85,29.25,734371
2018-08-23 00:00:00+05:30,29.0,29.6,27.7,28.5,97114
2018-08-24 00:00:00+05:30,28.25,28.45,26.9,27.35,593715
2018-08-27 00:00:00+05:30,27.2,28.0,26.6,26.9,319537
2018-08-28 00:00:00+05:30,27.0,27.0,26.3,26.8,123970
2018-08-29 00:00:00+05:30,26.85,26.85,26.4,26.5,14204
2018-08-30 00:00:00+05:30,26.4,26.8,25.8,26.1,227391
2018-08-31 00:00:00+05:30,26.1,26.75,26.1,26.25,20438
2018-09-03 00:00:00+05:30,26.95,28.25,26.0,26.15,616030
2018-09-04 00:00:00+05:30,26.15,26.55,25.7,25.95,113762
2018-09-05 00:00:00+05:30,25.65,26.4,25.4,26.1,28609
2018-09-06 00:00:00+05:30,26.1,29.0,26.1,27.85,418919
2018-09-07 00:00:00+05:30,28.0,29.0,27.5,27.75,1153226
2018-09-10 00:00:00+05:30,27.9,28.3,26.8,26.95,362317
2018-09-11 00:00:00+05:30,27.0,28.95,26.7,27.1,178523
2018-09-12 00:00:00+05:30,27.0,27.35,26.65,26.9,68053
2018-09-14 00:00:00+05:30,26.9,27.4,26.5,26.65,156447
2018-09-17 00:00:00+05:30,26.65,26.75,25.6,25.8,81929
2018-09-18 00:00:00+05:30,25.95,26.25,25.5,25.75,65431
2018-09-19 00:00:00+05:30,25.75,28.0,25.75,25.8,95211
2018-09-21 00:00:00+05:30,25.8,26.45,24.55,25.05,43774
2018-09-24 00:00:00+05:30,25.05,25.4,24.55,25.05,19347
2018-09-25 00:00:00+05:30,25.95,25.95,24.3,25.15,38426
2018-09-26 00:00:00+05:30,26.8,26.8,25.2,25.35,19911
2018-09-27 00:00:00+05:30,25.05,25.05,24.4,24.5,19762
2018-09-28 00:00:00+05:30,24.5,24.5,23.6,23.75,38205
2018-10-01 00:00:00+05:30,23.5,23.9,22.5,23.0,47744
2018-10-03 00:00:00+05:30,23.5,23.75,22.9,23.05,28317
2018-10-04 00:00:00+05:30,22.95,23.7,21.05,21.9,611874
2018-10-05 00:00:00+05:30,22.0,22.0,20.2,21.35,200529
2018-10-08 00:00:00+05:30,21.1,24.45,20.85,22.15,28617
2018-10-09 00:00:00+05:30,22.0,22.75,21.85,22.05,25664
2018-10-10 00:00:00+05:30,22.3,23.4,22.05,22.9,32589
2018-10-11 00:00:00+05:30,22.4,22.75,21.3,22.3,17573
2018-10-12 00:00:00+05:30,22.9,23.15,22.1,22.4,34987
2018-10-15 00:00:00+05:30,23.4,23.45,22.0,22.45,111609
2018-10-16 00:00:00+05:30,22.95,25.1,22.8,24.8,118101
2018-10-17 00:00:00+05:30,27.4,29.7,26.25,27.8,1013772
2018-10-19 00:00:00+05:30,27.85,29.4,27.5,28.55,386356
2018-10-22 00:00:00+05:30,29.0,29.3,27.8,28.0,84440
2018-10-23 00:00:00+05:30,28.0,28.0,27.0,27.3,40046
2018-10-24 00:00:00+05:30,27.3,27.95,26.65,27.1,38891
2018-10-25 00:00:00+05:30,26.1,27.0,25.75,26.0,19110
2018-10-26 00:00:00+05:30,25.75,27.3,25.5,26.55,22160
2018-10-29 00:00:00+05:30,25.5,27.85,25.5,27.7,79187
2018-10-30 00:00:00+05:30,27.7,28.5,27.55,27.9,44174
2018-10-31 00:00:00+05:30,27.7,28.7,27.55,28.5,30811
2018-11-01 00:00:00+05:30,28.5,29.5,27.55,28.5,57538
2018-11-02 00:00:00+05:30,27.5,29.9,27.5,29.15,88206
2018-11-05 00:00:00+05:30,30.6,30.6,29.7,30.6,139123
2018-11-06 00:00:00+05:30,32.1,32.1,31.1,32.1,94823
2018-11-07 00:00:00+05:30,33.7,33.7,32.7,33.45,150209
2018-11-09 00:00:00+05:30,33.45,35.1,32.1,33.6,152211
2018-11-12 00:00:00+05:30,34.75,34.75,31.95,31.95,101446
2018-11-13 00:00:00+05:30,30.8,33.0,30.75,31.8,90945
2018-11-14 00:00:00+05:30,31.75,32.5,31.2,31.95,53509
2018-11-15 00:00:00+05:30,32.1,32.7,31.8,32.05,16801
2018-11-16 00:00:00+05:30,31.3,32.25,31.0,31.2,50964
2018-11-19 00:00:00+05:30,31.7,31.8,30.7,30.85,25108
2018-11-20 00:00:00+05:30,30.85,31.45,29.35,29.8,13984
2018-11-21 00:00:00+05:30,29.5,30.55,28.8,29.2,13284
2018-11-22 00:00:00+05:30,29.1,30.1,29.1,29.9,9439
2018-11-26 00:00:00+05:30,29.9,30.5,29.15,29.5,16968
2018-11-27 00:00:00+05:30,29.5,30.8,28.5,28.85,11279
2018-11-28 00:00:00+05:30,28.85,29.0,28.5,28.65,19348
2018-11-29 00:00:00+05:30,28.65,29.5,27.8,28.25,28845
2018-11-30 00:00:00+05:30,28.0,29.65,28.0,29.2,61910
2019-01-09 00:00:00+05:30,30.2,31.0,29.7,29.95,41795
2019-01-10 00:00:00+05:30,30.9,30.9,29.7,30.0,45485
2019-01-11 00:00:00+05:30,29.6,31.0,29.5,29.7,81670
2019-01-14 00:00:00+05:30,29.95,29.95,28.5,28.75,104588
2019-01-15 00:00:00+05:30,28.2,28.9,27.6,27.65,52565
2019-01-16 00:00:00+05:30,27.6,27.65,26.3,26.3,100561
2019-01-17 00:00:00+05:30,26.0,26.0,25.2,25.5,113250
2019-01-18 00:00:00+05:30,25.0,25.7,24.35,24.55,47623
2019-01-21 00:00:00+05:30,24.1,24.4,23.6,24.3,55720
2019-01-22 00:00:00+05:30,23.9,24.2,23.5,24.0,74663
2019-01-23 00:00:00+05:30,24.0,24.8,24.0,24.35,25278
2019-01-24 00:00:00+05:30,24.35,24.55,23.8,23.95,36712
2019-01-25 00:00:00+05:30,23.8,24.45,23.75,23.8,38182
2019-01-28 00:00:00+05:30,23.8,23.8,22.7,22.85,152089
2019-01-29 00:00:00+05:30,23.35,23.55,23.0,23.35,65070
2019-01-30 00:00:00+05:30,23.1,24.25,23.1,24.1,55417
2019-01-31 00:00:00+05:30,24.0,24.5,24.0,24.1,13843
2019-02-01 00:00:00+05:30,24.1,24.85,23.7,24.5,16972
2019-02-04 00:00:00+05:30,24.0,24.0,23.3,23.35,47319
2019-02-05 00:00:00+05:30,23.1,23.5,22.5,22.65,13792
2019-02-06 00:00:00+05:30,22.35,23.65,22.35,23.05,12456
2019-02-07 00:00:00+05:30,23.2,23.25,22.6,23.0,15537
2019-02-08 00:00:00+05:30,22.8,23.1,22.75,22.8,18320
2019-02-11 00:00:00+05:30,22.65,23.25,22.0,22.35,18852
2019-02-12 00:00:00+05:30,22.7,22.75,22.0,22.1,14535
2019-02-13 00:00:00+05:30,22.0,22.5,21.8,22.25,13655
2019-02-14 00:00:00+05:30,22.4,22.4,21.55,21.75,12568
2019-02-15 00:00:00+05:30,21.8,22.1,21.65,22.0,8118
2019-02-18 00:00:00+05:30,22.05,22.05,20.9,20.95,63665
2019-02-19 00:00:00+05:30,20.95,21.5,20.7,21.25,14879
2019-02-20 00:00:00+05:30,20.4,21.4,20.4,20.8,19364
2019-02-21 00:00:00+05:30,21.2,21.5,21.0,21.5,26510
2019-02-22 00:00:00+05:30,21.45,22.35,21.2,22.0,25356
2019-02-25 00:00:00+05:30,22.0,22.5,21.85,21.95,15093
2019-02-26 00:00:00+05:30,22.0,22.7,21.6,22.55,12093
2019-02-27 00:00:00+05:30,22.55,22.9,21.45,21.45,23431
2019-02-28 00:00:00+05:30,21.15,21.9,20.5,21.65,27074
2019-03-01 00:00:00+05:30,21.95,22.7,21.4,22.65,19396
2019-03-05 00:00:00+05:30,22.65,23.75,22.55,23.6,18783
2019-03-06 00:00:00+05:30,23.65,24.55,23.65,24.2,15172
2019-03-07 00:00:00+05:30,23.9,24.2,23.75,23.95,8950
2019-03-08 00:00:00+05:30,23.75,23.85,22.95,23.2,32655
2019-03-11 00:00:00+05:30,22.9,23.7,22.85,23.7,40181
2019-03-12 00:00:00+05:30,23.35,24.0,23.35,23.7,33281
2019-03-13 00:00:00+05:30,23.55,23.8,23.0,23.15,7406
2019-03-14 00:00:00+05:30,23.05,23.4,22.1,22.7,8224
2019-03-15 00:00:00+05:30,22.95,23.3,22.6,23.05,76583
2019-03-18 00:00:00+05:30,22.85,23.6,22.5,23.0,5729
2019-03-19 00:00:00+05:30,22.4,23.4,22.4,23.05,36959
2019-03-20 00:00:00+05:30,23.0,23.0,22.3,22.5,15932
2019-03-22 00:00:00+05:30,22.65,23.0,22.3,22.65,8530
2019-03-25 00:00:00+05:30,22.6,22.6,21.6,22.1,8978
2019-03-26 00:00:00+05:30,22.2,22.2,21.6,21.85,39659
2019-03-27 00:00:00+05:30,21.95,22.4,21.55,21.75,66944
2019-03-28 00:00:00+05:30,21.75,22.0,21.3,21.4,48384
2019-03-29 00:00:00+05:30,21.45,21.6,21.05,21.3,12827
2019-04-01 00:00:00+05:30,21.35,22.35,21.35,22.35,25329
2019-04-02 00:00:00+05:30,22.35,23.15,22.35,22.6,6275
2019-04-03 00:00:00+05:30,22.6,23.1,22.15,22.35,11215
2019-04-04 00:00:00+05:30,22.35,22.5,22.1,22.2,3611
2019-04-05 00:00:00+05:30,22.25,22.6,22.05,22.4,10451
2019-04-08 00:00:00+05:30,21.65,22.75,21.65,22.35,8673
2019-04-09 00:00:00+05:30,22.3,22.9,22.1,22.3,60257
2019-04-10 00:00:00+05:30,22.25,22.9,22.1,22.5,56474
2019-04-11 00:00:00+05:30,23.5,23.5,22.25,22.25,17758
2019-04-12 00:00:00+05:30,22.25,22.8,22.1,22.3,14506
2019-04-15 00:00:00+05:30,22.5,23.0,22.5,22.5,20060
2019-04-16 00:00:00+05:30,22.05,22.95,22.05,22.25,14395
2019-04-18 00:00:00+05:30,22.2,22.9,22.2,22.4,11678
2019-04-22 00:00:00+05:30,22.05,22.4,21.4,21.45,18190
2019-04-23 00:00:00+05:30,21.15,22.6,20.85,20.95,44977
2019-04-24 00:00:00+05:30,22.65,22.65,20.95,21.15,9312
2019-04-25 00:00:00+05:30,21.25,21.7,21.05,21.15,8157
2019-04-26 00:00:00+05:30,21.25,21.5,20.8,21.0,13200
2019-04-30 00:00:00+05:30,21.05,21.05,20.1,20.5,5497
2019-05-02 00:00:00+05:30,21.35,21.35,20.05,20.7,12073
2019-05-03 00:00:00+05:30,20.6,22.7,20.6,20.8,38700
2019-05-06 00:00:00+05:30,20.35,20.95,20.3,20.55,5593
2019-05-07 00:00:00+05:30,20.2,20.9,20.2,20.85,1263
2019-05-08 00:00:00+05:30,20.65,20.9,19.85,20.3,5383
2019-05-09 00:00:00+05:30,20.35,20.7,19.95,20.7,1456
2019-05-10 00:00:00+05:30,20.65,21.0,20.0,20.7,14337
2019-05-13 00:00:00+05:30,20.55,20.55,19.95,20.05,4761
2019-05-14 00:00:00+05:30,20.05,20.2,18.95,19.9,18053
2019-05-15 00:00:00+05:30,20.05,21.25,20.0,21.1,37221
2019-05-16 00:00:00+05:30,20.45,21.45,20.4,20.95,10592
2019-05-17 00:00:00+05:30,21.15,21.6,20.6,21.2,7247
2019-05-20 00:00:00+05:30,20.8,21.9,20.8,21.7,41718
2019-05-21 00:00:00+05:30,21.1,21.65,20.95,21.45,8235
2019-05-22 00:00:00+05:30,21.25,21.5,20.85,20.9,4591
2019-05-23 00:00:00+05:30,21.05,21.7,21.05,21.2,14547
2019-05-24 00:00:00+05:30,21.1,21.9,21.0,21.75,14135
2019-05-27 00:00:00+05:30,21.5,22.25,21.5,22.0,11571
2019-05-28 00:00:00+05:30,21.3,22.0,21.2,21.7,2153
2019-05-29 00:00:00+05:30,21.25,21.75,21.25,21.4,2986
2019-05-30 00:00:00+05:30,21.5,22.25,21.1,21.6,20294
2019-05-31 00:00:00+05:30,21.55,22.05,20.75,20.95,37653
2019-06-03 00:00:00+05:30,21.4,21.4,20.3,20.8,13397
2019-06-04 00:00:00+05:30,20.75,20.75,20.2,20.3,24843
2019-06-06 00:00:00+05:30,20.1,20.9,19.9,20.4,20453
2019-06-07 00:00:00+05:30,20.9,21.0,19.95,20.7,7701
2019-06-10 00:00:00+05:30,20.55,20.9,19.9,20.0,10434
2019-06-11 00:00:00+05:30,20.0,20.45,19.95,20.25,2458
2019-06-12 00:00:00+05:30,20.25,20.7,20.0,20.15,5791
2019-06-13 00:00:00+05:30,20.05,20.55,19.65,20.0,21864
2019-06-14 00:00:00+05:30,20.05,20.1,19.75,20.0,32694
2019-06-17 00:00:00+05:30,19.9,19.9,18.6,19.1,18290
2019-06-18 00:00:00+05:30,19.05,22.0,18.25,18.9,56375
2019-06-19 00:00:00+05:30,19.05,19.05,16.1,17.4,139206
2019-06-20 00:00:00+05:30,16.45,18.7,16.2,17.15,14094
2019-06-21 00:00:00+05:30,16.95,17.65,16.55,17.5,16784
2019-06-24 00:00:00+05:30,17.3,18.35,16.8,17.0,22757
2019-06-25 00:00:00+05:30,17.3,18.2,17.05,18.1,10817
2019-06-26 00:00:00+05:30,17.55,20.0,17.3,18.25,11177
2019-06-27 00:00:00+05:30,18.15,18.6,17.7,18.3,40016
2019-06-28 00:00:00+05:30,18.1,19.15,18.05,19.05,30035
2019-07-01 00:00:00+05:30,18.9,19.7,18.75,19.0,4134
2019-07-02 00:00:00+05:30,19.45,19.45,18.7,18.8,1985
2019-07-03 00:00:00+05:30,18.55,18.75,18.1,18.4,4514
2019-07-04 00:00:00+05:30,18.3,19.05,18.1,18.95,13461
2019-07-05 00:00:00+05:30,19.7,19.7,18.5,19.05,11296
2019-07-08 00:00:00+05:30,18.9,18.9,18.15,18.25,3893
2019-07-09 00:00:00+05:30,18.0,18.7,18.0,18.55,3922
2019-07-10 00:00:00+05:30,18.2,18.3,17.0,17.5,61844
2019-07-11 00:00:00+05:30,18.25,18.25,17.2,17.35,10578
2019-07-12 00:00:00+05:30,18.25,18.25,17.2,17.4,5821
2019-07-15 00:00:00+05:30,16.65,17.7,16.65,17.0,25640
2019-07-16 00:00:00+05:30,17.15,17.15,16.4,16.5,53443
2019-07-17 00:00:00+05:30,16.6,17.4,16.45,16.85,40996
2019-07-18 00:00:00+05:30,16.7,17.2,16.5,16.7,21143
2019-07-19 00:00:00+05:30,16.5,17.4,16.5,16.8,9550
2019-07-22 00:00:00+05:30,16.4,16.4,15.6,16.25,13445
2019-07-23 00:00:00+05:30,17.1,17.1,16.15,16.35,9303
2019-07-24 00:00:00+05:30,16.15,16.45,16.0,16.15,8486
2019-07-25 00:00:00+05:30,16.25,16.45,16.0,16.25,4729
2019-07-26 00:00:00+05:30,15.2,17.15,15.2,16.9,11788
2019-07-29 00:00:00+05:30,16.5,16.9,16.25,16.65,15816
2019-07-30 00:00:00+05:30,16.9,17.5,16.15,16.35,18249
2019-07-31 00:00:00+05:30,16.0,17.2,16.0,16.45,12493
2019-08-01 00:00:00+05:30,16.55,16.6,15.9,16.0,3533
2019-08-02 00:00:00+05:30,15.8,16.0,15.6,15.65,8387
2019-08-05 00:00:00+05:30,15.1,16.5,13.8,15.1,79633
2019-08-06 00:00:00+05:30,15.65,15.75,15.05,15.15,12487
2019-08-07 00:00:00+05:30,15.25,15.5,15.05,15.15,7858
2019-08-08 00:00:00+05:30,15.15,15.9,14.9,15.0,3168
2019-08-09 00:00:00+05:30,15.0,16.5,14.8,15.75,4925
2019-08-13 00:00:00+05:30,15.7,15.7,14.05,14.5,18415
2019-08-14 00:00:00+05:30,14.6,14.95,14.35,14.55,10340
2019-08-16 00:00:00+05:30,14.35,15.1,14.25,15.0,23940
2019-08-19 00:00:00+05:30,14.95,15.05,14.3,14.45,14944
2019-08-20 00:00:00+05:30,14.25,14.6,14.0,14.05,32256
2019-08-21 00:00:00+05:30,13.3,14.0,13.3,13.85,21559
2019-08-22 00:00:00+05:30,14.0,14.0,12.95,12.95,31362
2019-08-23 00:00:00+05:30,12.7,13.5,12.65,13.1,10110
2019-08-26 00:00:00+05:30,13.35,14.45,13.3,13.8,6006
2019-08-27 00:00:00+05:30,13.85,14.6,13.7,13.8,16928
2019-08-28 00:00:00+05:30,13.8,14.4,13.8,14.0,6692
2019-08-29 00:00:00+05:30,13.5,14.0,13.4,13.75,4545
2019-08-30 00:00:00+05:30,13.7,14.45,13.65,13.9,29368
2019-09-03 00:00:00+05:30,14.05,14.75,13.95,14.5,6134
2019-09-04 00:00:00+05:30,14.4,14.55,13.85,14.45,3258
2019-09-05 00:00:00+05:30,14.15,15.0,14.15,14.55,3768
2019-09-06 00:00:00+05:30,14.3,15.95,14.3,15.55,8806
2019-09-09 00:00:00+05:30,15.55,16.95,15.55,16.55,16756
2019-09-11 00:00:00+05:30,17.35,19.85,17.35,18.95,213199
2019-09-12 00:00:00+05:30,18.95,21.45,17.65,18.8,131213
2019-09-13 00:00:00+05:30,18.5,19.25,17.5,18.0,30442
2019-09-16 00:00:00+05:30,17.9,18.5,17.15,18.05,9513
2019-09-17 00:00:00+05:30,18.25,18.35,17.4,17.6,9983
2019-09-18 00:00:00+05:30,17.5,18.85,17.25,18.0,13417
2019-09-19 00:00:00+05:30,18.45,18.9,17.1,18.0,29932
2019-09-20 00:00:00+05:30,17.95,18.95,17.2,18.1,27634
2019-09-23 00:00:00+05:30,18.1,18.6,17.6,17.7,16775
2019-09-24 00:00:00+05:30,17.75,18.05,17.3,17.55,5927
2019-09-25 00:00:00+05:30,17.95,17.95,17.15,17.35,16192
2019-09-26 00:00:00+05:30,17.75,20.25,17.15,19.35,184115
2019-09-27 00:00:00+05:30,19.35,20.2,18.0,18.4,336663
2019-09-30 00:00:00+05:30,18.2,18.75,16.5,16.9,103438
2019-10-01 00:00:00+05:30,17.05,17.45,15.65,16.4,42984
2019-10-03 00:00:00+05:30,15.4,16.25,15.4,15.65,53604
2019-10-04 00:00:00+05:30,15.65,16.0,15.2,15.35,14129
2019-10-07 00:00:00+05:30,15.3,15.75,14.85,15.3,33072
2019-10-09 00:00:00+05:30,15.4,15.4,14.7,14.85,12530
2019-10-10 00:00:00+05:30,14.2,15.1,14.2,14.35,19742
2019-10-11 00:00:00+05:30,14.35,15.05,14.25,14.65,5587
2019-10-14 00:00:00+05:30,14.95,15.2,14.2,14.45,8241
2019-10-15 00:00:00+05:30,14.85,16.8,14.5,15.8,24916
2019-10-16 00:00:00+05:30,15.45,17.45,15.45,17.2,49055
2019-10-17 00:00:00+05:30,17.0,17.2,15.75,17.0,11615
2019-10-18 00:00:00+05:30,16.9,17.4,16.25,16.95,3958
2019-10-22 00:00:00+05:30,16.9,17.0,16.2,16.8,212836
2019-10-23 00:00:00+05:30,16.75,17.05,16.4,16.85,8983
2019-10-24 00:00:00+05:30,16.65,17.0,16.45,17.0,1676
2019-10-25 00:00:00+05:30,16.95,16.95,15.8,16.3,4102
2019-10-27 00:00:00+05:30,16.75,17.3,15.9,17.1,2829
2019-10-29 00:00:00+05:30,16.9,17.0,16.15,16.35,9891
2019-10-30 00:00:00+05:30,16.2,16.6,15.5,15.6,12215
2019-10-31 00:00:00+05:30,16.45,17.95,15.5,16.4,115137
2019-11-01 00:00:00+05:30,16.1,17.6,15.8,16.1,20003
2019-11-04 00:00:00+05:30,16.05,16.8,15.1,15.55,29286
2019-11-05 00:00:00+05:30,15.8,16.0,15.3,15.85,18126
2019-11-06 00:00:00+05:30,15.65,16.25,15.5,15.5,21258
2019-11-07 00:00:00+05:30,15.45,15.95,15.45,15.65,13884
2019-11-08 00:00:00+05:30,15.85,15.85,15.2,15.5,2864
2019-11-11 00:00:00+05:30,15.65,15.75,15.15,15.35,3997
2019-11-13 00:00:00+05:30,15.65,15.65,15.05,15.1,2326
2019-11-14 00:00:00+05:30,14.95,15.65,14.8,15.0,14781
2019-11-15 00:00:00+05:30,15.2,15.2,14.95,15.05,4286
2019-11-18 00:00:00+05:30,15.0,15.05,14.55,14.7,6621
2019-11-19 00:00:00+05:30,14.8,15.1,14.55,14.8,2131
2019-11-20 00:00:00+05:30,14.8,15.0,14.3,14.9,5895
2019-11-21 00:00:00+05:30,14.9,14.9,14.55,14.65,1634
2019-11-22 00:00:00+05:30,14.65,14.9,14.0,14.2,13705
2019-11-25 00:00:00+05:30,13.95,14.8,13.95,14.25,10349
2019-11-26 00:00:00+05:30,14.25,14.7,14.25,14.4,5554
2019-11-27 00:00:00+05:30,14.8,14.8,14.15,14.2,19786
2019-11-28 00:00:00+05:30,14.3,14.65,14.25,14.3,10689
2019-11-29 00:00:00+05:30,14.5,14.85,14.15,14.3,15579
2019-12-02 00:00:00+05:30,14.25,15.25,14.1,14.4,12357
2019-12-03 00:00:00+05:30,14.5,14.5,14.05,14.1,4456
2019-12-04 00:00:00+05:30,14.1,14.45,14.0,14.25,7613
2019-12-05 00:00:00+05:30,14.25,14.4,14.1,14.2,1818
2019-12-06 00:00:00+05:30,14.15,14.65,13.9,13.95,69570
2019-12-09 00:00:00+05:30,14.2,14.4,13.85,13.95,10732
2019-12-10 00:00:00+05:30,13.8,14.1,13.45,13.5,7500
2019-12-11 00:00:00+05:30,13.35,13.4,13.1,13.15,8211
2019-12-12 00:00:00+05:30,13.5,13.75,13.2,13.3,10442
2019-12-13 00:00:00+05:30,13.95,13.95,13.25,13.45,7767
2019-12-16 00:00:00+05:30,13.35,13.65,13.15,13.4,7799
2019-12-17 00:00:00+05:30,13.6,15.1,13.6,14.2,112607
2019-12-18 00:00:00+05:30,14.9,14.9,13.55,14.0,19737
2019-12-19 00:00:00+05:30,13.95,14.25,13.55,14.0,20296
2019-12-20 00:00:00+05:30,14.0,14.45,13.6,13.65,6852
2019-12-23 00:00:00+05:30,14.5,14.5,13.3,13.6,13977
2019-12-24 00:00:00+05:30,14.0,14.8,12.65,13.2,109536
2019-12-26 00:00:00+05:30,13.15,13.2,12.9,13.15,56528
2019-12-27 00:00:00+05:30,13.1,14.35,13.05,13.95,98371
2019-12-30 00:00:00+05:30,14.1,14.2,13.35,13.85,11641
2019-12-31 00:00:00+05:30,13.8,14.6,13.7,14.35,5309
2020-01-01 00:00:00+05:30,14.1,14.6,13.6,13.8,15632
2020-01-02 00:00:00+05:30,14.0,15.4,14.0,14.95,27044
2020-01-03 00:00:00+05:30,14.95,14.95,14.45,14.7,12963
2020-01-06 00:00:00+05:30,14.7,14.7,14.3,14.6,11904
2020-01-07 00:00:00+05:30,14.7,14.8,14.5,14.55,10032
2020-01-08 00:00:00+05:30,14.55,15.3,14.1,14.9,5840
2020-01-09 00:00:00+05:30,15.25,15.25,14.4,14.5,12597
2020-01-10 00:00:00+05:30,14.4,15.6,14.4,14.7,26660
2020-01-13 00:00:00+05:30,14.6,15.5,14.6,14.75,13348
2020-01-14 00:00:00+05:30,14.8,15.65,14.75,15.2,16441
2020-01-15 00:00:00+05:30,15.0,16.4,15.0,15.3,45348
2020-01-16 00:00:00+05:30,15.25,15.85,15.15,15.35,13642
2020-01-17 00:00:00+05:30,15.3,17.2,15.3,16.3,71988
2020-01-20 00:00:00+05:30,16.3,16.35,15.35,15.55,20107
2020-01-21 00:00:00+05:30,15.35,15.95,15.3,15.8,12285
2020-01-22 00:00:00+05:30,16.35,16.35,15.6,15.85,24196
2020-01-23 00:00:00+05:30,15.8,16.05,15.45,15.55,14890
2020-01-24 00:00:00+05:30,15.3,16.2,15.25,16.0,35103
2020-01-27 00:00:00+05:30,15.9,15.9,15.35,15.45,10485
2020-01-28 00:00:00+05:30,15.45,15.6,15.0,15.5,17341
2020-01-29 00:00:00+05:30,15.1,15.9,14.7,14.95,24578
2020-01-30 00:00:00+05:30,14.85,15.5,14.3,14.55,23838
2020-01-31 00:00:00+05:30,14.55,14.9,14.1,14.35,21723
2020-02-01 00:00:00+05:30,14.8,14.8,13.5,13.75,18577
2020-02-03 00:00:00+05:30,13.65,14.9,13.3,13.6,6333
2020-02-04 00:00:00+05:30,13.55,14.9,13.55,14.65,15619
2020-02-05 00:00:00+05:30,14.9,14.9,14.1,14.45,5407
2020-02-06 00:00:00+05:30,14.35,15.25,14.35,14.65,14696
2020-02-07 00:00:00+05:30,14.55,14.95,14.5,14.55,4624
2020-02-10 00:00:00+05:30,14.45,15.85,14.45,14.5,4844
2020-02-11 00:00:00+05:30,14.45,14.95,14.0,14.15,5589
2020-02-12 00:00:00+05:30,14.2,14.4,13.55,13.65,14868
2020-02-13 00:00:00+05:30,13.45,14.25,13.45,13.65,9104
2020-02-14 00:00:00+05:30,13.7,14.25,13.25,13.45,24586
2020-02-17 00:00:00+05:30,13.55,14.0,13.5,13.6,4523
2020-02-18 00:00:00+05:30,14.0,14.0,13.3,13.75,20207
2020-02-19 00:00:00+05:30,13.4,14.25,13.35,13.9,19889
2020-02-20 00:00:00+05:30,14.3,15.5,14.3,14.45,11466
2020-02-24 00:00:00+05:30,14.1,14.8,13.6,14.0,6243
2020-02-25 00:00:00+05:30,13.95,14.2,13.3,13.4,7463
2020-02-26 00:00:00+05:30,13.3,14.25,13.3,13.95,6935
2020-02-27 00:00:00+05:30,13.9,14.8,13.3,14.25,4571
2020-02-28 00:00:00+05:30,14.0,14.05,12.9,13.65,6376
2020-03-02 00:00:00+05:30,13.5,13.7,12.3,12.7,26623
2020-03-03 00:00:00+05:30,12.8,13.25,12.55,12.7,15022
2020-03-04 00:00:00+05:30,12.1,13.25,12.1,12.5,6233
2020-03-05 00:00:00+05:30,12.5,13.0,12.45,12.55,7652
2020-03-06 00:00:00+05:30,12.5,13.2,11.75,13.05,42733
2020-03-09 00:00:00+05:30,13.05,13.05,12.25,12.7,17448
2020-03-11 00:00:00+05:30,12.2,12.95,12.1,12.75,57215
2020-03-12 00:00:00+05:30,12.15,13.5,11.5,12.1,75237
2020-03-13 00:00:00+05:30,10.65,13.9,10.0,11.55,41536
2020-03-16 00:00:00+05:30,12.3,12.85,10.55,12.05,34243
2020-03-17 00:00:00+05:30,10.8,12.45,10.8,11.5,11525
2020-03-18 00:00:00+05:30,11.55,11.65,11.0,11.1,17021
2020-03-19 00:00:00+05:30,10.95,12.0,10.3,11.9,17788
2020-03-20 00:00:00+05:30,12.05,12.8,11.4,12.2,7990
2020-03-23 00:00:00+05:30,11.7,11.7,9.8,10.25,44830
2020-03-24 00:00:00+05:30,10.2,11.35,10.0,10.2,32196
2020-03-25 00:00:00+05:30,10.25,10.9,9.8,10.2,5897
2020-03-26 00:00:00+05:30,10.45,11.7,10.3,11.5,11635
2020-03-27 00:00:00+05:30,11.65,11.9,10.2,11.15,17750
2020-03-30 00:00:00+05:30,10.9,10.95,10.25,10.55,8691
2020-03-31 00:00:00+05:30,10.6,11.9,10.45,11.5,11003
2020-04-01 00:00:00+05:30,11.45,11.6,11.35,11.5,5835
2020-04-03 00:00:00+05:30,11.05,11.9,10.5,10.95,35263
2020-04-07 00:00:00+05:30,11.25,12.8,11.15,12.65,27145
2020-04-08 00:00:00+05:30,12.7,15.15,12.7,14.95,70029
2020-04-09 00:00:00+05:30,16.0,16.45,13.75,14.45,97732
2020-04-13 00:00:00+05:30,15.5,15.5,13.0,13.7,52529
2020-04-15 00:00:00+05:30,13.65,13.75,13.4,13.45,15783
2020-04-16 00:00:00+05:30,13.5,13.75,12.6,13.65,28532
2020-04-17 00:00:00+05:30,13.75,14.0,13.3,13.7,11047
2020-04-20 00:00:00+05:30,13.95,14.05,13.05,13.3,17556
2020-04-21 00:00:00+05:30,13.2,13.6,12.75,12.95,19968
2020-04-22 00:00:00+05:30,12.75,12.75,12.15,12.5,26123
2020-04-23 00:00:00+05:30,12.5,13.35,12.5,13.0,21463
2020-04-24 00:00:00+05:30,12.7,13.7,12.35,12.65,25955
2020-04-27 00:00:00+05:30,12.35,13.2,12.35,12.6,23098
2020-04-28 00:00:00+05:30,12.85,13.0,12.45,12.65,32299
2020-04-29 00:00:00+05:30,12.5,12.85,12.5,12.55,4072
2020-04-30 00:00:00+05:30,12.8,12.8,12.45,12.7,13366
2020-05-04 00:00:00+05:30,12.5,12.95,12.25,12.9,17850
2020-05-05 00:00:00+05:30,12.8,12.85,12.35,12.45,7585
2020-05-06 00:00:00+05:30,12.9,12.9,12.5,12.5,7108
2020-05-07 00:00:00+05:30,12.5,13.4,12.2,12.45,20659
2020-05-08 00:00:00+05:30,12.3,12.9,11.95,12.4,43286
2020-05-11 00:00:00+05:30,12.35,12.8,12.05,12.45,9810
2020-05-12 00:00:00+05:30,12.0,12.4,11.8,12.2,19501
2020-05-13 00:00:00+05:30,12.65,12.65,12.1,12.15,46418
2020-05-14 00:00:00+05:30,12.0,12.4,12.0,12.15,22547
2020-05-15 00:00:00+05:30,12.6,12.6,11.7,12.0,45529
2020-05-18 00:00:00+05:30,11.9,12.25,11.6,12.05,16854
2020-05-19 00:00:00+05:30,12.0,12.2,11.6,11.65,5458
2020-05-20 00:00:00+05:30,11.6,12.1,11.0,11.7,17520
2020-05-21 00:00:00+05:30,11.7,12.0,11.6,11.95,9092
2020-05-22 00:00:00+05:30,11.9,12.4,11.4,11.9,11860
2020-05-26 00:00:00+05:30,12.4,12.4,11.65,12.15,8731
2020-05-27 00:00:00+05:30,12.2,12.35,11.7,12.35,4346
2020-05-28 00:00:00+05:30,12.65,12.65,11.75,11.9,25496
2020-05-29 00:00:00+05:30,12.15,12.65,10.35,11.65,86652
2020-06-01 00:00:00+05:30,11.3,12.25,11.3,12.1,32996
2020-06-02 00:00:00+05:30,12.0,12.5,11.85,12.1,10496
2020-06-03 00:00:00+05:30,12.2,12.5,11.75,11.8,67456
2020-06-04 00:00:00+05:30,11.8,12.0,11.75,11.95,16244
2020-06-05 00:00:00+05:30,11.9,12.3,11.85,12.25,22587
2020-06-08 00:00:00+05:30,12.25,12.8,11.8,12.0,54257
2020-06-09 00:00:00+05:30,12.1,12.5,11.9,12.0,32751
2020-06-10 00:00:00+05:30,11.7,12.6,11.7,11.9,38093
2020-06-11 00:00:00+05:30,12.0,12.3,11.85,12.05,27301
2020-06-12 00:00:00+05:30,11.95,12.2,11.65,12.1,14103
2020-06-15 00:00:00+05:30,12.5,12.5,11.85,12.15,11819
2020-06-16 00:00:00+05:30,12.0,12.35,11.85,12.0,37117
2020-06-17 00:00:00+05:30,12.0,12.25,11.75,12.1,24616
2020-06-18 00:00:00+05:30,12.3,12.75,11.75,12.65,84793
2020-06-19 00:00:00+05:30,12.75,14.85,12.6,14.0,187172
2020-06-22 00:00:00+05:30,14.15,15.25,13.9,14.25,106210
2020-06-23 00:00:00+05:30,14.3,15.2,14.05,14.65,65998
2020-06-24 00:00:00+05:30,14.65,16.45,14.4,15.9,287964
2020-06-25 00:00:00+05:30,15.8,16.7,15.2,15.45,186645
2020-06-26 00:00:00+05:30,15.4,16.35,14.8,14.95,76359
2020-06-29 00:00:00+05:30,15.0,16.4,14.55,16.15,143175
2020-06-30 00:00:00+05:30,16.8,17.5,15.7,16.1,343219
2020-07-01 00:00:00+05:30,16.1,16.75,15.3,16.0,80617
2020-07-02 00:00:00+05:30,16.0,16.8,16.0,16.15,90335
2020-07-03 00:00:00+05:30,16.15,16.8,15.4,15.5,73683
2020-07-06 00:00:00+05:30,15.5,16.0,15.25,15.6,73367
2020-07-07 00:00:00+05:30,15.95,15.95,14.85,15.4,70256
2020-07-08 00:00:00+05:30,15.4,15.85,14.9,15.1,619056
2020-07-09 00:00:00+05:30,15.75,16.2,15.05,15.2,89796
2020-07-10 00:00:00+05:30,15.25,15.6,14.55,14.95,75112
2020-07-13 00:00:00+05:30,15.45,15.45,15.0,15.05,8842
2020-07-14 00:00:00+05:30,15.3,15.3,14.65,14.8,11853
2020-07-15 00:00:00+05:30,15.25,15.4,14.6,14.85,43733
2020-07-16 00:00:00+05:30,14.85,15.1,13.8,14.2,89273
2020-07-17 00:00:00+05:30,14.45,14.7,14.2,14.35,8625
2020-07-20 00:00:00+05:30,14.6,14.9,14.5,14.55,12397
2020-07-21 00:00:00+05:30,14.35,15.1,14.2,14.25,39987
2020-07-22 00:00:00+05:30,14.85,14.85,14.15,14.45,34501
2020-07-23 00:00:00+05:30,14.45,17.3,14.35,17.25,656021
2020-07-24 00:00:00+05:30,16.75,16.85,15.65,16.1,379338
2020-07-27 00:00:00+05:30,16.4,16.9,15.85,16.1,100669
2020-07-28 00:00:00+05:30,16.65,16.65,15.8,15.9,36970
2020-07-29 00:00:00+05:30,15.8,17.3,15.5,16.45,430685
2020-07-30 00:00:00+05:30,16.95,17.0,15.7,16.0,141498
2020-07-31 00:00:00+05:30,16.25,16.95,16.0,16.6,114456
2020-08-03 00:00:00+05:30,16.6,16.6,15.6,16.0,85992
2020-08-04 00:00:00+05:30,15.95,16.7,15.85,16.15,40458
2020-08-05 00:00:00+05:30,16.25,16.55,16.05,16.15,43094
2020-08-06 00:00:00+05:30,16.0,16.55,16.0,16.15,32587
2020-08-07 00:00:00+05:30,16.15,16.25,15.85,16.1,20262
2020-08-10 00:00:00+05:30,16.5,16.5,15.75,15.9,54891
2020-08-11 00:00:00+05:30,16.1,16.1,15.6,15.75,41785
2020-08-12 00:00:00+05:30,15.75,16.0,15.65,15.9,54414
2020-10-01 00:00:00+05:30,13.85,14.0,13.0,13.2,71322
2020-10-05 00:00:00+05:30,13.7,13.7,13.2,13.25,17103
2020-10-06 00:00:00+05:30,13.5,13.7,13.2,13.5,27013
2020-10-07 00:00:00+05:30,13.5,13.75,13.2,13.3,9635
2020-10-08 00:00:00+05:30,13.45,14.0,13.1,13.3,91611
2020-10-09 00:00:00+05:30,13.35,13.6,13.25,13.4,4464
2020-10-12 00:00:00+05:30,13.3,13.35,13.2,13.25,7832
2020-10-13 00:00:00+05:30,13.25,13.45,13.1,13.2,5120
2020-10-14 00:00:00+05:30,13.05,13.05,12.35,12.75,30156
2020-10-15 00:00:00+05:30,13.45,13.45,12.75,12.85,17277
2020-10-16 00:00:00+05:30,13.25,13.25,12.55,12.9,9558
2020-10-19 00:00:00+05:30,12.85,13.45,12.7,12.85,6722
2020-10-20 00:00:00+05:30,13.45,13.5,12.9,13.0,8793
2020-10-21 00:00:00+05:30,12.95,13.3,12.65,12.95,22032
2020-10-22 00:00:00+05:30,13.05,13.25,12.7,12.8,16643
2020-10-23 00:00:00+05:30,13.0,13.15,12.9,12.9,14122
2020-10-26 00:00:00+05:30,13.1,13.3,12.85,13.0,17681
2020-10-27 00:00:00+05:30,12.9,13.2,12.6,12.7,7123
2020-10-28 00:00:00+05:30,12.7,12.9,12.5,12.7,16917
2020-10-29 00:00:00+05:30,12.6,12.85,12.5,12.6,6636
2020-10-30 00:00:00+05:30,12.6,12.95,12.4,12.65,4283
2020-11-02 00:00:00+05:30,12.75,12.8,12.4,12.6,39026
2020-11-03 00:00:00+05:30,12.55,12.8,12.4,12.4,30772
2020-11-04 00:00:00+05:30,12.45,12.8,12.25,12.4,21037
2020-11-05 00:00:00+05:30,12.4,12.7,12.4,12.65,8798
2020-11-06 00:00:00+05:30,12.95,13.1,12.5,12.7,23496
2020-11-09 00:00:00+05:30,12.8,12.8,12.2,12.3,91644
2020-11-10 00:00:00+05:30,12.25,12.6,12.15,12.5,43198
2020-11-11 00:00:00+05:30,12.85,12.85,12.3,12.5,4462
2020-11-12 00:00:00+05:30,12.4,12.75,12.4,12.5,11972
2020-11-13 00:00:00+05:30,12.65,12.8,12.5,12.6,17427
2020-11-14 00:00:00+05:30,13.0,13.0,12.35,12.6,4818
2020-11-17 00:00:00+05:30,12.55,12.75,12.4,12.55,33284
2020-11-18 00:00:00+05:30,12.55,13.05,12.5,12.65,56285
2020-11-19 00:00:00+05:30,12.65,13.8,12.4,12.8,136391
2020-11-20 00:00:00+05:30,13.3,13.8,13.05,13.55,141187
2020-11-23 00:00:00+05:30,13.4,14.05,13.1,13.7,61063
2020-11-24 00:00:00+05:30,13.5,13.9,13.1,13.3,26757
2020-11-25 00:00:00+05:30,13.35,13.8,13.15,13.2,24284
2020-11-26 00:00:00+05:30,13.6,13.6,13.05,13.2,13037
2020-11-27 00:00:00+05:30,13.1,13.65,13.05,13.35,44715
2020-12-01 00:00:00+05:30,13.15,15.2,13.15,14.25,182281
2020-12-02 00:00:00+05:30,14.8,15.3,14.15,14.35,82176
2020-12-03 00:00:00+05:30,14.4,15.1,14.4,14.65,87649
2020-12-04 00:00:00+05:30,14.85,14.9,13.95,14.05,70341
2020-12-07 00:00:00+05:30,14.8,15.2,14.15,14.75,91328
2020-12-08 00:00:00+05:30,14.9,15.0,14.2,14.7,116430
2020-12-09 00:00:00+05:30,14.6,15.0,14.6,14.8,52920
2020-12-10 00:00:00+05:30,14.55,14.7,14.0,14.25,46625
2020-12-11 00:00:00+05:30,14.35,14.8,14.25,14.45,56254
2020-12-14 00:00:00+05:30,14.85,14.85,14.2,14.5,59126
2020-12-15 00:00:00+05:30,14.45,14.7,14.3,14.35,29348
2020-12-16 00:00:00+05:30,14.7,14.7,14.35,14.5,24124
2020-12-17 00:00:00+05:30,14.7,16.95,14.35,16.0,567030
2020-12-18 00:00:00+05:30,16.2,16.2,15.0,15.65,171607
2020-12-21 00:00:00+05:30,15.95,16.5,15.05,15.25,201681
2020-12-22 00:00:00+05:30,14.8,15.4,14.1,15.25,97908
2020-12-23 00:00:00+05:30,15.05,15.55,15.0,15.35,46966
2020-12-24 00:00:00+05:30,15.3,16.5,15.05,15.65,246475
2020-12-28 00:00:00+05:30,15.5,16.05,15.25,15.6,130099
2020-12-29 00:00:00+05:30,15.6,15.9,15.0,15.2,80068
2020-12-30 00:00:00+05:30,15.4,15.9,15.2,15.35,61674
2020-12-31 00:00:00+05:30,15.35,17.25,15.35,16.3,315306
2021-01-01 00:00:00+05:30,16.75,16.75,16.1,16.2,93943
2021-01-04 00:00:00+05:30,16.7,16.7,16.05,16.2,115944
2021-01-05 00:00:00+05:30,16.15,16.35,15.65,15.95,104986
2021-01-06 00:00:00+05:30,15.8,16.1,15.4,15.55,94116
2021-01-07 00:00:00+05:30,15.9,16.1,15.5,15.75,96367
2021-01-08 00:00:00+05:30,15.75,16.3,15.5,15.6,138530
2021-01-11 00:00:00+05:30,15.5,15.7,14.8,14.9,111669
2021-01-12 00:00:00+05:30,15.2,15.2,14.8,14.9,71318
2021-01-13 00:00:00+05:30,15.4,15.4,14.2,14.7,121219
2021-01-14 00:00:00+05:30,14.7,15.15,14.7,15.1,63546
2021-01-15 00:00:00+05:30,15.15,16.7,14.8,15.7,480270
2021-01-18 00:00:00+05:30,16.0,16.1,15.1,15.35,53371
2021-01-19 00:00:00+05:30,15.25,15.6,15.15,15.25,60774
2021-01-20 00:00:00+05:30,15.6,16.5,15.6,15.8,411732
2021-01-21 00:00:00+05:30,15.95,16.0,15.2,15.3,63320
2021-01-22 00:00:00+05:30,15.2,15.5,14.5,14.65,144244
2021-01-25 00:00:00+05:30,14.75,14.95,14.5,14.8,58550
2021-01-27 00:00:00+05:30,14.8,14.9,14.65,14.7,22300
2021-01-28 00:00:00+05:30,14.5,14.8,14.4,14.55,22562
2021-01-29 00:00:00+05:30,14.8,15.1,14.65,14.75,21999
2021-02-01 00:00:00+05:30,15.0,15.0,14.5,14.55,39939
2021-02-02 00:00:00+05:30,14.8,14.9,14.5,14.7,59454
2021-02-03 00:00:00+05:30,14.85,14.85,14.5,14.55,30519
2021-02-04 00:00:00+05:30,14.7,15.45,14.5,15.1,100591
2021-02-05 00:00:00+05:30,15.1,15.3,14.65,14.75,61889
2021-02-08 00:00:00+05:30,14.45,15.0,14.45,14.65,28119
2021-02-09 00:00:00+05:30,14.6,14.8,14.5,14.55,22231
2021-02-10 00:00:00+05:30,14.45,14.7,14.3,14.45,50122
2021-02-11 00:00:00+05:30,14.65,14.75,14.45,14.55,32464
2021-02-12 00:00:00+05:30,14.5,14.7,14.3,14.35,32239
2021-02-15 00:00:00+05:30,14.5,14.5,14.3,14.3,26228
2021-02-16 00:00:00+05:30,14.3,14.55,14.15,14.45,29599
2021-02-17 00:00:00+05:30,14.7,14.7,14.25,14.35,26261
2021-02-18 00:00:00+05:30,14.35,14.5,14.1,14.2,97704
2021-02-19 00:00:00+05:30,14.2,14.75,14.1,14.2,80112
2021-02-22 00:00:00+05:30,14.5,14.5,13.95,14.0,19307
2021-02-23 00:00:00+05:30,14.05,14.2,13.9,13.95,16486
2021-02-24 00:00:00+05:30,14.0,15.4,14.0,14.7,60359
2021-02-25 00:00:00+05:30,15.15,15.15,14.35,14.5,37482
2021-02-26 00:00:00+05:30,14.4,14.65,14.2,14.45,22206
2021-03-01 00:00:00+05:30,14.6,14.65,14.3,14.55,20399
2021-03-02 00:00:00+05:30,14.65,15.65,14.2,15.25,386633
2021-03-03 00:00:00+05:30,15.45,18.3,15.3,16.55,1214317
2021-03-04 00:00:00+05:30,16.45,16.45,15.8,15.95,138633
2021-03-05 00:00:00+05:30,16.3,17.3,15.8,16.85,536112
2021-03-08 00:00:00+05:30,17.4,17.5,16.85,17.0,189653
2021-03-09 00:00:00+05:30,17.25,20.4,16.9,18.65,2191211
2021-03-10 00:00:00+05:30,18.6,19.55,17.65,18.15,444483
2021-03-12 00:00:00+05:30,18.8,19.0,16.85,17.2,259999
2021-03-15 00:00:00+05:30,17.5,17.75,16.45,16.95,179207
2021-03-16 00:00:00+05:30,17.3,17.75,16.5,16.75,190648
2021-03-17 00:00:00+05:30,16.75,17.0,16.3,16.35,77807
2021-03-18 00:00:00+05:30,16.45,16.7,15.55,15.95,89227
2021-03-19 00:00:00+05:30,15.25,16.5,15.1,16.05,67633
2021-03-22 00:00:00+05:30,16.05,16.05,15.55,15.8,42246
2021-03-23 00:00:00+05:30,16.3,16.9,15.75,15.95,58402
2021-03-24 00:00:00+05:30,15.95,16.2,15.1,15.3,60850
2021-03-25 00:00:00+05:30,15.3,18.0,15.05,16.05,329795
2021-03-26 00:00:00+05:30,16.2,16.75,15.45,15.95,71544
2021-03-30 00:00:00+05:30,15.95,17.15,15.95,16.9,84866
2021-03-31 00:00:00+05:30,16.9,17.35,16.45,16.65,38728
2021-04-01 00:00:00+05:30,16.65,17.3,16.55,16.8,40181
2021-04-05 00:00:00+05:30,16.95,16.95,15.65,16.2,55998
2021-04-06 00:00:00+05:30,16.05,16.5,15.95,16.0,19961
2021-04-07 00:00:00+05:30,16.05,16.5,15.85,15.9,52415
2021-04-08 00:00:00+05:30,15.95,16.4,15.8,15.9,38100
2021-04-09 00:00:00+05:30,15.8,16.0,15.3,15.55,38733
2021-04-12 00:00:00+05:30,15.4,15.5,14.95,15.05,22291
2021-04-13 00:00:00+05:30,14.7,15.3,14.7,15.05,9147
2021-04-15 00:00:00+05:30,15.05,15.25,14.7,15.1,18046
2021-04-16 00:00:00+05:30,14.5,15.2,14.5,14.8,27869
2021-04-19 00:00:00+05:30,15.0,15.0,13.4,14.15,35709
2021-04-20 00:00:00+05:30,14.75,14.8,14.2,14.3,27952
2021-04-22 00:00:00+05:30,14.05,14.7,13.9,14.65,13143
2021-04-23 00:00:00+05:30,14.4,15.0,14.35,14.8,20434
2021-04-26 00:00:00+05:30,15.0,15.0,14.2,14.45,24882
2021-04-27 00:00:00+05:30,14.45,15.15,14.45,15.0,45483
2021-04-28 00:00:00+05:30,15.15,15.7,14.85,15.3,69101
2021-04-29 00:00:00+05:30,15.25,15.25,14.6,14.8,27097
2021-04-30 00:00:00+05:30,14.95,15.0,14.5,14.6,50391
2021-05-03 00:00:00+05:30,14.6,14.9,14.05,14.75,123538
2021-05-04 00:00:00+05:30,14.95,16.9,14.75,15.85,371444
2021-05-05 00:00:00+05:30,16.2,16.45,15.75,16.05,126650
2021-05-06 00:00:00+05:30,16.1,16.15,15.55,15.65,23711
2021-05-07 00:00:00+05:30,15.5,17.1,15.5,16.65,292774
2021-05-10 00:00:00+05:30,16.65,17.5,16.25,16.55,105895
2021-05-11 00:00:00+05:30,15.7,17.2,15.7,16.55,145793
2021-05-12 00:00:00+05:30,16.5,17.7,15.75,15.95,119349
2021-05-14 00:00:00+05:30,16.65,16.65,15.9,16.15,50514
2021-05-17 00:00:00+05:30,16.55,16.55,16.05,16.2,38260
2021-05-18 00:00:00+05:30,16.9,16.9,16.1,16.4,57873
2021-05-19 00:00:00+05:30,16.2,16.45,15.75,16.0,77659
2021-05-20 00:00:00+05:30,16.0,17.3,15.95,16.25,226472
2021-05-21 00:00:00+05:30,16.5,16.8,16.25,16.55,55262
2021-05-24 00:00:00+05:30,16.55,17.25,16.3,16.55,176966
2021-05-25 00:00:00+05:30,16.75,16.9,16.6,16.8,112700
2021-05-26 00:00:00+05:30,16.95,18.45,16.65,17.65,535100
2021-05-27 00:00:00+05:30,17.65,18.25,17.2,17.5,389462
2021-05-28 00:00:00+05:30,17.5,17.75,16.9,17.1,128007
2021-05-31 00:00:00+05:30,18.5,19.5,18.25,18.45,1462825
2021-06-01 00:00:00+05:30,18.5,18.7,17.55,17.85,202409
2021-06-02 00:00:00+05:30,17.6,19.7,17.6,18.85,415961
2021-06-03 00:00:00+05:30,19.0,19.45,18.4,18.75,193562
2021-06-04 00:00:00+05:30,18.5,19.0,18.2,18.35,193224
2021-06-07 00:00:00+05:30,18.35,18.8,18.2,18.25,128064
2021-06-08 00:00:00+05:30,18.3,18.6,18.0,18.3,134733
2021-06-09 00:00:00+05:30,18.35,19.6,18.05,18.3,852385
2021-06-10 00:00:00+05:30,18.5,19.5,18.25,18.8,285941
2021-06-11 00:00:00+05:30,19.0,20.45,18.8,19.95,1002964
2021-06-14 00:00:00+05:30,20.25,20.25,19.1,19.25,300963
2021-06-15 00:00:00+05:30,19.1,20.95,19.05,20.2,564861
2021-06-16 00:00:00+05:30,20.0,20.2,19.55,19.65,214188
2021-06-17 00:00:00+05:30,19.25,20.1,19.1,19.3,268341
2021-06-18 00:00:00+05:30,19.15,19.7,18.3,19.0,458599
2021-06-21 00:00:00+05:30,18.9,19.2,17.4,18.85,291268
2021-06-22 00:00:00+05:30,18.85,19.75,18.7,18.95,814927
2021-06-23 00:00:00+05:30,19.1,19.7,18.8,18.9,407643
2021-06-24 00:00:00+05:30,19.25,19.4,18.6,18.7,105779
2021-06-25 00:00:00+05:30,18.95,22.4,18.6,20.5,3176074
2021-06-28 00:00:00+05:30,20.7,21.2,19.75,20.0,484555
2021-06-29 00:00:00+05:30,20.05,20.25,19.6,19.7,137186
2021-06-30 00:00:00+05:30,20.15,20.7,19.75,20.55,344981
2021-07-01 00:00:00+05:30,20.75,21.15,20.1,20.2,352491
2021-07-02 00:00:00+05:30,20.45,20.7,19.8,19.9,190908
2021-07-05 00:00:00+05:30,20.1,21.65,19.6,20.75,590925
2021-07-06 00:00:00+05:30,21.15,21.8,20.4,20.6,218322
2021-07-07 00:00:00+05:30,21.1,24.7,21.1,24.7,5168423
2021-07-08 00:00:00+05:30,24.95,24.95,22.6,22.85,1403474
2021-07-09 00:00:00+05:30,22.95,23.85,22.5,23.05,596552
2021-07-12 00:00:00+05:30,23.0,23.4,22.3,22.6,272434
2021-07-13 00:00:00+05:30,22.95,23.1,21.6,21.75,403508
2021-07-14 00:00:00+05:30,21.4,22.35,21.4,21.85,198746
2021-07-15 00:00:00+05:30,21.85,22.65,20.5,20.7,427551
2021-07-16 00:00:00+05:30,21.0,21.7,20.4,20.65,263631
2021-07-19 00:00:00+05:30,20.5,21.2,19.65,20.25,330767
2021-07-20 00:00:00+05:30,20.05,20.95,18.7,20.65,415700
2021-07-22 00:00:00+05:30,21.5,21.5,20.5,21.05,222344
2021-07-23 00:00:00+05:30,21.25,21.85,20.5,20.65,209935
2021-07-26 00:00:00+05:30,20.85,20.85,19.9,20.1,138382
2021-07-27 00:00:00+05:30,19.95,23.75,19.95,22.15,1307269
2021-07-28 00:00:00+05:30,22.6,23.5,21.95,23.0,646510
2021-07-29 00:00:00+05:30,23.25,24.1,22.6,22.75,534487
2021-07-30 00:00:00+05:30,22.8,25.7,22.45,24.7,1587074
2021-08-02 00:00:00+05:30,27.7,27.7,25.15,25.5,1262204
2021-08-03 00:00:00+05:30,26.3,26.3,24.25,24.4,423356
2021-08-04 00:00:00+05:30,25.2,25.2,22.85,23.1,381797
2021-08-05 00:00:00+05:30,23.0,24.15,21.5,22.7,616425
2021-08-06 00:00:00+05:30,22.75,23.7,22.25,22.7,177806
2021-08-09 00:00:00+05:30,22.75,23.3,22.25,22.75,181037
2021-08-10 00:00:00+05:30,22.85,22.85,20.55,20.85,294104
2021-08-11 00:00:00+05:30,20.85,20.95,18.9,20.4,216845
2021-08-12 00:00:00+05:30,20.5,21.6,20.5,20.85,158650
2021-08-13 00:00:00+05:30,20.85,22.4,20.6,21.35,202228
2021-08-16 00:00:00+05:30,21.15,21.5,20.0,20.3,164804
2021-08-17 00:00:00+05:30,20.5,20.75,19.65,19.75,133763
2021-08-18 00:00:00+05:30,19.85,20.5,19.5,19.65,87096
2021-08-20 00:00:00+05:30,19.0,19.65,17.0,18.7,299624
2021-08-23 00:00:00+05:30,19.2,19.5,18.2,18.4,82664
2021-08-24 00:00:00+05:30,18.45,20.6,18.2,19.95,198229
2021-08-25 00:00:00+05:30,20.0,20.45,19.55,19.75,88871
2021-08-26 00:00:00+05:30,19.75,20.3,19.5,19.55,76759
2021-08-27 00:00:00+05:30,19.55,19.75,18.5,18.9,67972
2021-08-30 00:00:00+05:30,18.95,20.45,18.95,19.85,151819
2021-08-31 00:00:00+05:30,20.9,20.9,19.6,19.8,57586
2021-09-01 00:00:00+05:30,20.0,20.7,19.65,20.05,143487
2021-09-02 00:00:00+05:30,20.1,20.4,19.7,19.8,136599
2021-09-03 00:00:00+05:30,20.25,20.25,19.55,19.6,64911
2021-09-06 00:00:00+05:30,19.7,19.95,19.15,19.55,106101
2021-09-07 00:00:00+05:30,19.5,19.75,19.15,19.45,38300
2021-09-08 00:00:00+05:30,19.75,19.75,18.9,19.05,262661
2021-09-09 00:00:00+05:30,19.1,19.4,19.0,19.15,78472
2021-09-13 00:00:00+05:30,19.15,19.5,18.95,19.2,61637
2021-09-14 00:00:00+05:30,19.25,19.5,18.0,18.95,170845
2021-09-15 00:00:00+05:30,18.7,19.35,18.7,19.05,102356
2021-09-16 00:00:00+05:30,19.0,19.3,19.0,19.05,49833
2021-09-17 00:00:00+05:30,19.05,19.2,18.2,18.7,107715
2021-09-20 00:00:00+05:30,18.75,18.75,18.05,18.35,39854
2021-09-21 00:00:00+05:30,18.35,18.65,18.35,18.45,26516
2021-09-22 00:00:00+05:30,18.7,19.0,18.5,18.6,44778
2021-09-23 00:00:00+05:30,18.95,19.1,18.4,18.45,97203
2021-09-24 00:00:00+05:30,18.45,18.7,17.9,18.1,95554
2021-09-27 00:00:00+05:30,18.2,18.95,17.7,18.6,90833
2021-09-28 00:00:00+05:30,18.25,20.25,18.25,19.5,513656
2021-09-29 00:00:00+05:30,19.7,19.95,19.35,19.65,71978
2021-09-30 00:00:00+05:30,19.9,20.75,19.35,19.5,136561
2021-10-01 00:00:00+05:30,19.5,20.0,19.1,19.6,77590
2021-10-04 00:00:00+05:30,19.95,20.0,19.5,19.55,94400
2021-10-05 00:00:00+05:30,19.55,21.0,19.35,20.5,322861
2021-10-06 00:00:00+05:30,20.9,21.1,19.5,19.7,177481
2021-10-07 00:00:00+05:30,20.0,20.8,19.75,19.95,108049
2021-10-08 00:00:00+05:30,20.05,20.9,20.05,20.25,115810
2021-10-11 00:00:00+05:30,20.45,22.15,20.05,21.25,548547
2021-10-12 00:00:00+05:30,21.4,22.1,21.05,21.8,231018
2021-10-13 00:00:00+05:30,22.0,22.0,21.05,21.25,199576
2021-10-14 00:00:00+05:30,21.5,21.5,20.6,20.9,92669
2021-10-18 00:00:00+05:30,20.95,20.95,20.05,20.15,119692
2021-10-19 00:00:00+05:30,20.4,20.4,19.2,19.55,105026
2021-10-20 00:00:00+05:30,19.6,19.75,19.1,19.15,45803
2021-10-21 00:00:00+05:30,19.2,19.9,19.2,19.6,33961
2021-10-22 00:00:00+05:30,19.75,20.15,19.05,19.25,68983
2021-10-25 00:00:00+05:30,19.2,19.3,18.55,18.95,62716
2021-10-26 00:00:00+05:30,19.0,19.95,18.35,19.15,56061
2021-10-27 00:00:00+05:30,19.25,20.2,19.2,19.6,92349
2021-10-28 00:00:00+05:30,19.65,19.95,18.75,18.85,41408
2021-10-29 00:00:00+05:30,18.9,19.35,18.6,18.8,36786
2021-11-01 00:00:00+05:30,19.5,19.5,18.9,19.0,26357
2021-11-02 00:00:00+05:30,19.4,19.4,18.75,18.95,33371
2021-11-03 00:00:00+05:30,19.0,19.25,18.65,18.9,40436
2021-11-04 00:00:00+05:30,19.25,19.3,19.0,19.05,26384
2021-11-08 00:00:00+05:30,19.0,19.25,19.0,19.05,30504
2021-11-09 00:00:00+05:30,19.05,19.25,19.05,19.05,33049
2021-11-10 00:00:00+05:30,19.05,19.25,18.85,18.95,46245
2021-11-11 00:00:00+05:30,18.6,19.2,18.6,18.8,30119
2021-11-12 00:00:00+05:30,18.75,22.35,18.75,21.95,1546348
2021-11-15 00:00:00+05:30,21.55,21.55,19.8,20.05,424442
2021-11-16 00:00:00+05:30,20.0,20.15,19.75,19.85,102897
2021-11-17 00:00:00+05:30,19.8,21.6,19.75,20.15,412878
2021-11-18 00:00:00+05:30,20.5,20.5,19.75,19.95,44563
2021-11-22 00:00:00+05:30,19.75,20.75,18.8,19.25,170126
2021-11-23 00:00:00+05:30,19.0,19.6,18.8,19.15,89556
2021-11-24 00:00:00+05:30,19.15,19.7,18.9,19.2,85750
2021-11-25 00:00:00+05:30,19.2,19.5,19.0,19.35,28468
2021-11-26 00:00:00+05:30,18.05,19.65,18.05,19.05,109020
2021-11-29 00:00:00+05:30,19.1,19.2,18.05,18.85,67848
2021-11-30 00:00:00+05:30,18.6,19.45,18.6,18.75,39918
2021-12-01 00:00:00+05:30,18.8,19.25,18.35,18.6,47485
2021-12-02 00:00:00+05:30,18.9,18.95,18.6,18.9,46177
2021-12-03 00:00:00+05:30,19.1,19.1,18.55,18.65,62148
2021-12-06 00:00:00+05:30,18.65,19.0,18.5,18.8,61790
2021-12-07 00:00:00+05:30,18.65,19.0,18.6,18.8,57451
2021-12-08 00:00:00+05:30,18.85,21.2,18.75,20.35,500391
2021-12-09 00:00:00+05:30,20.55,21.0,20.25,20.35,113815
2021-12-10 00:00:00+05:30,20.35,20.95,20.0,20.6,83909
2021-12-13 00:00:00+05:30,21.0,21.0,19.8,20.05,45717
2021-12-14 00:00:00+05:30,20.2,22.0,19.9,21.4,577868
2021-12-15 00:00:00+05:30,21.65,21.65,20.1,20.35,125177
2021-12-16 00:00:00+05:30,20.7,20.7,20.05,20.15,54090
2021-12-17 00:00:00+05:30,20.05,20.05,18.95,19.25,127902
2021-12-20 00:00:00+05:30,18.95,18.95,17.05,17.95,282967
2021-12-21 00:00:00+05:30,18.15,18.75,17.85,18.35,65437
2021-12-22 00:00:00+05:30,18.35,19.55,18.1,18.95,90240
2021-12-23 00:00:00+05:30,19.6,19.8,18.8,19.0,61830
2021-12-24 00:00:00+05:30,19.35,19.35,17.85,18.25,188078
2021-12-27 00:00:00+05:30,18.4,18.8,18.0,18.5,97244
2021-12-28 00:00:00+05:30,18.5,19.45,18.5,19.2,91553
2021-12-29 00:00:00+05:30,19.5,20.45,18.8,19.5,260329
2021-12-30 00:00:00+05:30,19.5,21.45,19.5,20.45,968223
2021-12-31 00:00:00+05:30,20.8,20.8,20.1,20.2,104707
2022-01-03 00:00:00+05:30,20.25,21.35,20.1,20.55,198841
2022-01-04 00:00:00+05:30,21.0,22.85,20.45,21.45,1009550
2022-01-05 00:00:00+05:30,21.4,22.25,21.15,21.85,428921
2022-01-06 00:00:00+05:30,21.65,21.95,21.1,21.6,114015
2022-01-07 00:00:00+05:30,21.85,22.4,20.75,20.85,263714
2022-01-10 00:00:00+05:30,21.15,22.75,20.9,22.1,386653
2022-01-11 00:00:00+05:30,22.3,22.3,21.05,21.25,196218
2022-01-12 00:00:00+05:30,21.5,22.3,21.4,21.75,249135
2022-01-13 00:00:00+05:30,22.0,22.0,21.05,21.2,118234
2022-01-14 00:00:00+05:30,21.4,21.95,21.05,21.35,117058
2022-01-17 00:00:00+05:30,21.2,21.9,21.2,21.55,80718
2022-01-18 00:00:00+05:30,21.55,21.9,20.8,21.05,168378
2022-01-19 00:00:00+05:30,21.35,21.5,19.6,20.6,123604
2022-01-20 00:00:00+05:30,20.6,21.25,20.35,20.7,75672
2022-01-21 00:00:00+05:30,20.25,20.85,20.05,20.3,91104
2022-01-24 00:00:00+05:30,20.0,20.3,19.05,19.25,134889
2022-01-25 00:00:00+05:30,19.15,19.5,18.9,19.2,85270
2022-01-27 00:00:00+05:30,19.0,19.85,18.75,19.75,85335
2022-01-28 00:00:00+05:30,20.25,20.6,19.55,19.65,113039
2022-01-31 00:00:00+05:30,20.05,20.05,19.55,19.7,226996
2022-02-01 00:00:00+05:30,19.9,20.4,19.25,19.5,74138
2022-02-02 00:00:00+05:30,19.55,21.35,19.55,20.75,340469
2022-02-03 00:00:00+05:30,21.2,21.5,20.4,20.6,128239
2022-02-04 00:00:00+05:30,20.95,21.1,20.1,20.6,92720
2022-02-07 00:00:00+05:30,20.85,20.85,20.0,20.1,82328
2022-02-08 00:00:00+05:30,20.1,20.2,19.35,19.85,53611
2022-02-09 00:00:00+05:30,19.9,20.5,19.65,19.75,67630
2022-02-10 00:00:00+05:30,19.95,19.95,19.55,19.7,37701
2022-02-11 00:00:00+05:30,19.6,19.95,19.5,19.65,33293
2022-02-14 00:00:00+05:30,19.05,19.85,18.7,18.85,62322
2022-02-15 00:00:00+05:30,18.7,19.25,18.35,18.95,90801
2022-02-16 00:00:00+05:30,19.6,20.9,19.05,20.05,208053
2022-02-17 00:00:00+05:30,19.9,20.5,19.05,19.2,97006
2022-02-18 00:00:00+05:30,19.0,19.4,18.8,18.85,64159
2022-02-21 00:00:00+05:30,19.2,19.2,18.15,18.4,50466
2022-02-22 00:00:00+05:30,18.0,18.45,17.25,18.15,68849
2022-02-23 00:00:00+05:30,18.35,18.75,18.05,18.3,88601
2022-02-24 00:00:00+05:30,17.8,17.8,16.55,16.85,122553
2022-02-25 00:00:00+05:30,17.15,18.3,17.15,17.75,52121
2022-02-28 00:00:00+05:30,17.75,18.25,16.2,17.9,62678
2022-03-02 00:00:00+05:30,17.95,18.2,17.5,17.8,32470
2022-03-03 00:00:00+05:30,17.85,18.25,17.3,17.55,25038
2022-03-04 00:00:00+05:30,17.55,17.8,17.1,17.15,51780
2022-03-07 00:00:00+05:30,17.4,17.4,16.6,16.85,21821
2022-03-08 00:00:00+05:30,17.2,17.2,16.85,17.1,23783
2022-03-09 00:00:00+05:30,16.9,17.7,16.9,17.55,46328
2022-03-10 00:00:00+05:30,17.6,18.0,17.2,17.5,59607
2022-03-11 00:00:00+05:30,17.9,18.9,17.55,18.55,127848
2022-03-14 00:00:00+05:30,18.55,19.3,18.55,18.7,94862
2022-03-15 00:00:00+05:30,18.85,19.45,18.35,18.6,147974
2022-03-16 00:00:00+05:30,18.5,20.3,18.5,19.6,524525
2022-03-17 00:00:00+05:30,19.85,20.1,19.2,19.5,161459
2022-03-21 00:00:00+05:30,19.8,19.8,18.15,18.2,470530
2022-03-22 00:00:00+05:30,18.45,18.45,17.65,17.9,166337
2022-03-23 00:00:00+05:30,17.85,18.25,17.65,17.8,151894
2022-03-24 00:00:00+05:30,17.8,18.5,17.6,17.8,154534
2022-03-25 00:00:00+05:30,17.95,18.2,17.5,17.75,128040
2022-03-28 00:00:00+05:30,17.95,17.95,17.3,17.4,277913
2022-03-29 00:00:00+05:30,17.5,18.0,16.9,17.0,378332
2022-03-30 00:00:00+05:30,17.15,17.6,17.1,17.15,101980
2022-03-31 00:00:00+05:30,17.15,17.45,16.9,17.05,84698
2022-04-01 00:00:00+05:30,17.0,17.95,17.0,17.7,139519
2022-04-04 00:00:00+05:30,18.2,18.4,18.0,18.2,76777
2022-04-05 00:00:00+05:30,18.6,19.3,18.1,18.85,183683
2022-04-06 00:00:00+05:30,18.85,19.4,18.35,18.8,169525
2022-04-07 00:00:00+05:30,18.9,21.3,18.9,20.35,752712
2022-04-08 00:00:00+05:30,20.7,21.05,20.2,20.5,277423
2022-04-11 00:00:00+05:30,20.85,20.9,19.45,19.6,150127
2022-04-12 00:00:00+05:30,19.6,19.75,18.95,19.3,137356
2022-04-13 00:00:00+05:30,19.3,20.2,19.2,19.65,121347
2022-04-18 00:00:00+05:30,19.0,20.8,18.85,19.8,364672
2022-04-19 00:00:00+05:30,20.05,21.9,19.3,20.05,911315
2022-04-20 00:00:00+05:30,20.25,20.85,19.45,19.95,218901
2022-04-21 00:00:00+05:30,19.75,21.65,19.7,21.25,344119
2022-04-22 00:00:00+05:30,21.3,21.5,20.55,20.6,170122
2022-04-25 00:00:00+05:30,20.7,20.8,19.6,19.65,133273
2022-04-26 00:00:00+05:30,19.7,20.5,19.5,19.65,93022
2022-04-27 00:00:00+05:30,19.5,19.7,19.0,19.2,107237
2022-04-28 00:00:00+05:30,19.95,19.95,18.85,19.05,155790
2022-04-29 00:00:00+05:30,19.4,19.4,18.8,18.85,61165
2022-05-02 00:00:00+05:30,18.8,19.1,18.75,18.95,44834
2022-05-04 00:00:00+05:30,18.55,19.0,18.15,18.4,74561
2022-05-05 00:00:00+05:30,18.45,18.65,17.8,18.1,72516
2022-05-06 00:00:00+05:30,18.4,18.5,17.6,17.75,84768
2022-05-09 00:00:00+05:30,17.45,17.65,16.7,17.1,97433
2022-05-10 00:00:00+05:30,17.2,17.95,17.1,17.4,55430
2022-05-11 00:00:00+05:30,17.75,17.75,16.25,17.15,63231
2022-05-12 00:00:00+05:30,17.15,17.15,16.4,16.7,30230
2022-05-13 00:00:00+05:30,17.0,17.45,16.15,16.6,61605
2022-05-16 00:00:00+05:30,16.95,17.85,16.95,17.25,56637
2022-05-17 00:00:00+05:30,17.25,17.95,17.25,17.8,31305
2022-05-18 00:00:00+05:30,17.5,18.5,17.45,17.55,113102
2022-05-19 00:00:00+05:30,17.8,17.95,16.9,17.15,38901
2022-05-20 00:00:00+05:30,17.5,17.8,17.3,17.7,20213
2022-05-23 00:00:00+05:30,17.95,17.95,17.1,17.2,33155
2022-05-24 00:00:00+05:30,17.1,17.35,16.85,17.0,34949
2022-05-25 00:00:00+05:30,17.2,17.2,16.4,16.7,28388
2022-05-26 00:00:00+05:30,16.75,17.2,16.15,16.45,44713
2022-05-27 00:00:00+05:30,16.45,17.2,16.45,16.85,25719
2022-05-30 00:00:00+05:30,16.85,17.3,16.75,17.0,27915
2022-05-31 00:00:00+05:30,17.05,17.05,16.55,16.75,28025
2022-06-01 00:00:00+05:30,16.75,17.1,16.65,16.7,19877
2022-06-02 00:00:00+05:30,16.7,16.85,16.25,16.55,58202
2022-06-03 00:00:00+05:30,16.9,16.9,16.0,16.15,62991
2022-06-06 00:00:00+05:30,16.45,16.45,16.15,16.3,9896
2022-06-07 00:00:00+05:30,16.3,16.5,16.15,16.2,18724
2022-06-08 00:00:00+05:30,16.2,16.65,16.1,16.2,34150
2022-06-09 00:00:00+05:30,15.9,16.4,15.9,16.1,22997
2022-06-10 00:00:00+05:30,16.0,16.25,15.95,16.05,22417
2022-06-13 00:00:00+05:30,15.45,16.1,15.45,15.55,19426
2022-06-14 00:00:00+05:30,15.8,16.45,15.55,15.85,26452
2022-06-15 00:00:00+05:30,16.0,16.15,15.55,15.6,9808
2022-06-16 00:00:00+05:30,15.4,15.95,15.4,15.5,14025
2022-06-17 00:00:00+05:30,15.5,15.6,15.2,15.25,11444
2022-06-20 00:00:00+05:30,15.25,15.5,14.3,14.75,43611
2022-06-21 00:00:00+05:30,14.75,15.25,14.6,14.95,50969
2022-06-22 00:00:00+05:30,14.7,15.8,14.6,14.85,15860
2022-06-23 00:00:00+05:30,14.7,15.6,14.65,15.2,15569
2022-06-24 00:00:00+05:30,14.9,15.7,14.8,15.3,22224
2022-06-27 00:00:00+05:30,15.1,15.7,15.0,15.45,21049
2022-06-28 00:00:00+05:30,15.45,15.7,15.1,15.45,21178
2022-06-29 00:00:00+05:30,15.15,15.9,15.0,15.4,41113
2022-06-30 00:00:00+05:30,15.2,15.7,15.2,15.3,6039
2022-07-01 00:00:00+05:30,15.25,15.7,15.25,15.4,24974
2022-07-04 00:00:00+05:30,15.8,15.8,15.45,15.55,35693
2022-07-05 00:00:00+05:30,15.55,17.1,15.35,16.15,246179
2022-07-06 00:00:00+05:30,16.5,16.5,16.0,16.05,12821
2022-07-07 00:00:00+05:30,16.05,16.45,16.0,16.1,9144
2022-07-08 00:00:00+05:30,15.75,16.45,15.75,16.1,26809
2022-07-11 00:00:00+05:30,15.9,16.5,15.75,16.1,18327
2022-07-12 00:00:00+05:30,16.05,16.4,15.55,16.0,46909
2022-07-13 00:00:00+05:30,16.35,16.65,16.15,16.2,51349
2022-07-14 00:00:00+05:30,16.05,16.5,15.75,15.8,25688
2022-07-15 00:00:00+05:30,16.0,16.2,15.8,15.9,14457
2022-07-18 00:00:00+05:30,16.2,16.3,15.85,16.15,26308
2022-07-19 00:00:00+05:30,15.9,16.5,15.9,16.2,26334
2022-07-20 00:00:00+05:30,16.5,16.65,16.05,16.25,58858
2022-07-21 00:00:00+05:30,16.15,16.25,16.0,16.05,37919
2022-07-22 00:00:00+05:30,16.0,16.3,16.0,16.05,31842
2022-07-25 00:00:00+05:30,16.1,16.2,15.75,15.85,19336
2022-07-26 00:00:00+05:30,15.75,16.1,15.75,15.85,5540
2022-07-27 00:00:00+05:30,15.85,16.4,15.85,15.95,64458
2022-07-28 00:00:00+05:30,15.85,16.25,15.8,15.85,41839
2022-07-29 00:00:00+05:30,15.85,16.2,15.8,15.85,17727
2022-08-01 00:00:00+05:30,16.4,16.7,16.05,16.5,143405
2022-08-02 00:00:00+05:30,16.4,17.25,16.4,16.95,92033
2022-08-03 00:00:00+05:30,16.75,16.9,16.3,16.45,33087
2022-08-04 00:00:00+05:30,16.5,16.9,16.15,16.65,41072
2022-08-05 00:00:00+05:30,16.65,16.75,16.3,16.4,25363
2022-08-08 00:00:00+05:30,16.35,16.8,16.05,16.35,35865
2022-08-10 00:00:00+05:30,16.35,17.2,16.05,16.6,180874
2022-08-11 00:00:00+05:30,16.95,16.95,16.05,16.25,22276
2022-08-12 00:00:00+05:30,16.25,16.5,16.2,16.3,25576
2022-08-16 00:00:00+05:30,16.45,16.55,16.1,16.35,20125
2022-08-17 00:00:00+05:30,16.55,16.75,16.4,16.6,57704
2022-08-18 00:00:00+05:30,16.6,16.7,16.4,16.55,15898
2022-08-19 00:00:00+05:30,16.75,16.95,16.45,16.65,47031
2022-08-22 00:00:00+05:30,16.25,16.7,16.15,16.15,43711
2022-08-23 00:00:00+05:30,16.4,16.9,16.35,16.35,31655
2022-08-24 00:00:00+05:30,16.7,17.2,16.5,16.75,153586
2022-08-25 00:00:00+05:30,17.15,17.2,16.75,16.8,54075
2022-08-26 00:00:00+05:30,16.9,17.3,16.75,17.05,30220
2022-08-29 00:00:00+05:30,16.9,17.45,16.6,16.95,77707
2022-08-30 00:00:00+05:30,17.3,17.3,16.85,17.0,16119
2022-09-01 00:00:00+05:30,17.1,17.3,16.8,17.0,27150
2022-09-02 00:00:00+05:30,17.0,17.1,16.7,16.8,40552
2022-09-05 00:00:00+05:30,16.8,17.1,16.6,16.7,36971
2022-09-06 00:00:00+05:30,16.95,17.45,16.7,16.8,141618
2022-09-07 00:00:00+05:30,16.95,17.1,16.65,16.7,40602
2022-09-08 00:00:00+05:30,16.95,18.2,16.7,17.75,353373
2022-09-09 00:00:00+05:30,17.95,18.35,17.75,17.8,119382
2022-09-12 00:00:00+05:30,18.0,18.05,17.1,17.4,46527
2022-09-13 00:00:00+05:30,17.75,17.95,17.4,17.85,64669
2022-09-14 00:00:00+05:30,17.95,17.95,16.5,17.55,37197
2022-09-15 00:00:00+05:30,17.8,17.9,16.95,17.2,82101
2022-09-16 00:00:00+05:30,16.9,17.2,16.6,16.8,38635
2022-09-19 00:00:00+05:30,17.3,17.3,16.6,16.65,11864
2022-09-20 00:00:00+05:30,16.85,17.0,16.65,16.75,39475
2022-09-21 00:00:00+05:30,16.75,16.95,16.25,16.4,30121
2022-09-22 00:00:00+05:30,16.4,16.6,16.4,16.5,5834
2022-09-23 00:00:00+05:30,16.95,16.95,15.8,16.0,45133
2022-09-26 00:00:00+05:30,16.1,16.1,15.2,15.35,32521
2022-09-27 00:00:00+05:30,15.85,15.85,15.4,15.7,13601
2022-09-28 00:00:00+05:30,15.5,16.2,15.3,15.7,9559
2022-09-29 00:00:00+05:30,15.75,15.9,15.4,15.55,8636
2022-09-30 00:00:00+05:30,15.3,15.8,15.3,15.5,21550
2022-10-03 00:00:00+05:30,15.5,15.75,15.05,15.3,30562
2022-10-04 00:00:00+05:30,15.75,15.75,15.15,15.55,21475
2022-10-06 00:00:00+05:30,15.55,16.3,15.3,16.2,36553
2022-10-07 00:00:00+05:30,16.5,16.5,15.9,16.15,15188
2022-10-10 00:00:00+05:30,15.9,16.3,15.85,16.2,17341
2022-10-11 00:00:00+05:30,16.2,16.2,16.0,16.1,8434
2022-10-12 00:00:00+05:30,16.45,16.45,15.9,16.0,5583
2022-10-13 00:00:00+05:30,16.0,16.3,15.75,15.9,15151
2022-10-14 00:00:00+05:30,15.95,16.25,15.85,16.0,10072
2022-10-17 00:00:00+05:30,16.2,16.2,15.1,15.5,19366
2022-10-18 00:00:00+05:30,15.55,15.85,15.25,15.5,24866
2022-10-19 00:00:00+05:30,15.8,15.8,15.6,15.6,356
